2020,4,5,940,134
2020,4,29,2954,260
2020,9,3,1223,233
2020,4,1,1627,260
2020,8,26,71,20
2019,12,26,2554,102
2020,11,26,3545,260
2020,11,8,1101,263
2020,9,27,2259,20
2020,7,14,531,192
2020,5,16,2361,116
2020,10,16,1778,297
2020,10,14,2904,142
2020,9,11,3571,142
2020,6,1,1898,215
2020,9,20,276,63
2020,3,10,337,215
2020,5,31,1301,215
2020,3,6,408,293
2020,7,28,2378,279
2020,1,26,1121,142
2020,10,20,2699,304
2020,8,30,2493,298
2020,1,2,1923,296
2020,7,26,1202,215
2020,8,23,3071,266
2020,8,26,636,63
2020,9,20,2743,260
2020,9,21,1736,20
2020,2,28,1549,226
2020,11,5,882,142
2020,6,1,3568,116
2020,4,2,1682,215
2020,3,11,542,296
2020,5,18,2246,142
2020,5,22,1202,23
2020,8,18,731,266
2020,8,21,3567,215
2020,7,1,3079,274
2020,11,16,771,192
2020,6,6,1549,212
2020,2,11,2661,268
2020,5,17,2191,298
2020,1,30,1744,233
2020,5,6,143,116
2020,7,14,3101,207
2020,3,3,1130,174
2020,5,18,795,63
2020,5,6,901,116
2020,9,11,207,279
2020,4,20,2253,67
2020,8,16,1305,116
2020,1,11,3396,31
2020,4,15,1770,63
2020,6,23,2940,303
2020,7,6,100,142
2020,6,1,1441,142
2020,8,14,2043,212
2020,3,12,1411,192
2020,9,18,1558,266
2020,8,8,518,142
2020,7,15,3113,168
2020,8,27,1032,88
2020,10,15,584,178
2020,11,18,2155,215
2020,6,27,1142,297
2020,6,30,202,233
2020,10,5,1774,228
2020,6,3,1623,142
2020,6,1,2889,20
2020,10,26,1396,134
2020,7,25,658,142
2020,9,7,25,63
2020,3,10,1202,296
2020,4,12,3082,192
2020,3,27,2246,192
2020,4,18,3449,60
2020,4,27,318,134
2020,7,14,739,48
2020,11,9,975,2
2020,11,12,2713,268
2020,9,18,1020,20
2020,8,9,651,215
2020,5,16,2713,142
2020,6,22,1657,88
2020,3,31,1447,290
2020,10,6,2520,23
2020,6,7,2713,20
2020,10,7,1425,192
2020,8,23,2178,266
2020,4,15,493,174
2020,9,4,2760,298
2020,5,11,2191,102
2020,5,2,337,212
2020,2,29,85,215
2020,12,24,477,60
2020,12,4,888,191
2020,11,26,1592,215
2020,7,18,41,60
2020,3,28,2302,142
2020,5,4,2348,192
2020,1,8,794,311
2020,6,14,627,20
2020,3,24,1534,233
2020,5,6,1658,296
2020,6,5,1969,116
2020,6,2,2665,116
2020,3,22,2906,215
2020,7,7,518,303
2020,3,26,2743,215
2020,4,17,975,192
2020,5,30,2950,264
2020,9,23,77,54
2020,4,13,2152,88
2020,5,4,1402,125
2020,7,17,3097,20
2020,9,20,147,260
2020,7,17,1208,298
2020,11,21,214,266
2020,6,25,1975,60
2020,3,27,562,207
2020,5,10,3097,116
2020,5,13,1283,67
2020,2,14,1034,309
2020,8,22,1133,264
2020,5,12,234,233
2020,9,7,3068,60
2020,7,8,2505,20
2020,3,21,1058,215
2020,7,21,127,63
2020,8,18,1601,168
2020,7,2,1201,261
2020,7,28,1859,260
2020,5,18,1692,142
2020,8,24,700,303
2020,6,23,1150,260
2020,6,7,2797,142
2020,8,25,2894,260
2020,12,7,2623,192
2020,12,8,636,142
2020,9,16,584,178
2020,9,4,1073,215
2020,4,1,1952,63
2020,3,10,794,296
2020,5,6,127,63
2020,3,14,1505,148
2020,2,16,2622,130
2020,1,5,2822,233
2020,4,21,1934,60
2020,8,22,2351,168
2020,6,10,1452,60
2020,4,24,1482,142
2020,7,31,722,20
2020,9,1,2950,142
2020,8,24,1144,303
2020,6,23,2020,260
2020,4,21,1530,215
2020,7,6,3354,192
2020,8,25,3399,142
2020,6,1,642,142
2020,7,31,3197,192
2020,11,3,1280,142
2020,10,27,139,116
2020,5,9,2954,142
2020,6,3,715,142
2020,8,25,1613,20
2020,6,21,1991,116
2020,6,7,3545,313
2020,12,15,277,215
2020,4,29,2619,268
2020,5,10,1808,63
2020,8,25,789,142
2020,8,11,3091,260
2020,5,7,2141,60
2020,10,6,1061,142
2020,2,26,1144,174
2020,3,22,2121,293
2020,10,10,3510,215
2020,10,13,972,67
2020,4,27,812,215
2020,8,14,2538,266
2020,6,1,318,303
2020,7,15,1636,60
2020,9,3,3296,233
2020,10,6,1900,142
2020,8,25,1933,142
2020,6,12,699,67
2020,7,28,2907,20
2020,9,4,795,88
2020,4,1,1658,174
2020,1,30,882,174
2020,3,22,1636,31
2020,6,14,2596,192
2020,6,30,1204,309
2020,7,28,3155,215
2020,4,11,290,293
2020,3,30,2111,174
2020,7,23,2302,192
2020,7,6,2579,174
2020,6,24,3323,116
2020,6,8,975,142
2020,12,23,1141,266
2020,5,20,3337,142
2020,7,4,909,293
2020,7,16,1511,298
2020,12,8,630,215
2020,9,9,1839,20
2020,5,2,1861,212
2020,8,5,1032,266
2020,1,11,817,63
2020,10,19,630,215
2020,9,11,1247,284
2020,5,5,3130,116
2020,10,24,2152,192
2020,9,30,2797,88
2020,8,7,1808,263
2020,12,6,2954,162
2020,8,25,2996,303
2020,12,24,1898,215
2020,8,16,2937,88
2020,3,19,2066,226
2020,4,12,1049,303
2020,1,9,2867,125
2020,9,27,1131,191
2020,11,29,1058,261
2020,8,21,1824,60
2020,5,1,365,233
2020,6,25,234,60
2020,7,4,1948,142
2020,7,23,1219,142
2020,5,6,1158,174
2020,1,8,1534,233
2020,10,7,2053,125
2020,7,15,1172,264
2020,5,30,2202,70
2020,10,17,493,20
2020,8,25,1095,303
2020,7,26,700,226
2020,6,12,2867,67
2020,6,8,3186,298
2020,12,18,904,254
2020,11,21,2882,18
2020,5,10,882,174
2020,12,2,3487,142
2020,5,26,1021,31
2020,2,18,100,174
2020,8,1,780,20
2020,7,4,1463,192
2020,8,2,2591,226
2020,7,23,398,88
2020,10,19,1283,215
2020,3,2,2789,88
2020,1,2,1969,192
2020,7,15,2063,20
2020,8,28,790,226
2020,2,26,868,174
2020,4,10,3449,215
2020,7,12,2698,60
2020,5,6,1071,309
2020,3,25,1282,174
2020,8,4,2020,142
2020,7,20,3342,116
2020,3,13,3372,293
2020,9,11,685,263
2020,5,19,1142,293
2020,9,20,3200,20
2020,12,3,1181,142
2020,5,24,2729,192
2020,8,17,3399,304
2020,6,3,739,54
2020,7,14,3194,192
2020,9,11,254,303
2020,6,25,3101,266
2020,9,13,2409,264
2020,6,10,3025,298
2020,3,29,1549,290
2020,6,28,636,116
2020,7,30,1520,142
2020,7,13,2158,233
2020,7,20,1883,192
2020,5,23,1301,102
2020,7,30,1223,142
2020,8,27,18,309
2020,8,27,642,142
2020,5,6,1593,125
2020,9,20,2461,20
2019,12,30,2387,217
2020,11,15,1612,266
2020,1,23,3296,63
2020,1,29,1798,63
2020,9,4,1793,88
2020,11,24,2565,266
2020,5,5,795,63
2020,4,2,2257,63
2020,8,30,2155,67
2020,4,18,2417,60
2020,6,9,1021,148
2020,11,29,3113,192
2020,9,5,2121,215
2020,5,18,724,215
2020,8,1,3399,116
2020,3,22,1592,174
2020,1,23,3542,293
2020,1,15,1915,268
2020,12,15,531,130
2020,7,28,1426,297
2020,3,4,1020,67
2020,5,24,1855,293
2020,8,16,1095,20
2020,5,14,3116,303
2020,7,15,2405,168
2020,9,9,2152,23
2020,6,8,882,142
2020,12,23,668,303
2020,7,13,1306,116
2020,12,9,755,298
2020,6,25,1170,226
2020,5,6,2571,303
2020,5,23,668,60
2020,2,1,1923,260
2020,2,1,234,260
2020,3,31,310,116
2020,4,13,2517,215
2020,7,21,2913,63
2020,12,5,3568,233
2020,11,24,81,298
2020,5,16,3350,142
2020,11,14,3545,23
2020,5,11,2121,309
2020,8,15,1133,142
2020,8,2,2472,266
2020,5,3,700,125
2020,5,13,2412,296
2020,4,20,1032,88
2020,4,1,2155,174
2020,6,21,266,142
2019,12,26,1718,168
2020,3,9,2934,125
2020,5,14,2954,67
2020,5,22,1592,23
2020,4,2,1202,18
2020,5,10,2270,260
2020,3,22,3002,296
2020,5,24,2417,192
2020,7,30,1255,215
2020,6,8,1636,142
2020,5,21,2797,70
2020,4,24,2592,142
2020,5,6,1573,174
2020,7,31,220,20
2020,3,27,1418,260
2020,4,19,1736,309
2020,6,3,2455,54
2020,9,7,3179,60
2020,8,18,3545,23
2020,3,16,1923,309
2020,8,23,2897,60
2020,4,17,1202,192
2020,8,8,424,142
2020,7,16,832,142
2020,5,23,2479,102
2020,4,15,823,293
2020,5,10,477,174
2020,5,18,3500,192
2020,4,15,3545,174
2020,9,11,3039,266
2020,3,5,768,67
2020,8,25,536,162
2020,8,17,1058,293
2020,4,21,3113,130
2020,4,4,824,192
2020,6,17,1071,125
2020,7,25,2018,134
2020,12,14,2779,295
2020,6,27,2246,215
2020,2,13,49,215
2020,6,25,3372,266
2020,12,1,1420,116
2020,5,5,1458,207
2020,11,19,2982,192
2020,7,28,2975,260
2020,5,9,1142,18
2020,4,24,185,142
2020,12,10,409,70
2020,2,15,2121,125
2020,4,16,3023,303
2020,11,7,3201,23
2020,9,21,590,192
2020,1,27,860,125
2020,1,12,1858,134
2020,5,5,60,215
2020,12,9,1592,298
2020,8,8,641,20
2020,8,23,1219,63
2020,9,21,3023,192
2020,7,1,1205,116
2020,8,25,3372,88
2020,12,9,3097,298
2020,2,14,234,63
2020,6,6,2875,142
2020,8,26,1917,260
2020,5,9,2467,18
2020,5,13,1131,70
2020,5,29,3294,134
2020,5,3,2866,260
2020,6,7,319,168
2020,1,30,2493,174
2020,6,22,3449,142
2020,10,4,3530,134
2020,7,1,823,266
2020,5,16,700,293
2020,7,13,107,116
2020,10,25,3097,233
2020,4,21,3212,63
2020,4,29,2538,309
2020,4,29,2982,260
2020,7,28,2066,142
2020,6,5,365,20
2020,8,23,2554,260
2020,4,12,2907,233
2020,5,7,1633,215
2020,5,18,1995,142
2020,8,18,1981,192
2020,8,17,676,168
2020,4,4,3449,130
2020,11,27,1149,233
2020,5,3,1744,260
2020,10,16,2949,215
2020,7,13,234,60
2020,8,12,1884,233
2020,1,26,3113,233
2020,8,8,1305,295
2020,11,1,642,192
2020,7,30,3174,192
2020,7,15,2510,264
2020,7,26,2453,301
2020,11,5,941,67
2020,8,25,929,67
2020,1,9,127,192
2020,7,14,2901,212
2020,9,20,3424,192
2020,11,19,730,215
2020,8,21,587,142
2020,6,1,703,266
2020,2,21,2027,200
2020,7,29,8,142
2020,10,7,1357,142
2020,7,17,2020,215
2020,3,22,1887,116
2020,11,9,1641,60
2020,9,7,3113,60
2020,8,24,1549,116
2020,12,23,2434,266
2020,5,10,3530,309
2020,5,5,3241,60
2020,8,27,2405,192
2020,1,11,3155,233
2020,8,31,3372,266
2020,11,14,3236,116
2020,11,2,207,215
2020,5,10,857,63
2020,5,26,2698,192
2020,6,1,3562,266
2020,5,31,402,20
2020,11,12,2579,284
2020,11,3,1653,142
2020,11,29,3232,303
2020,6,1,696,142
2020,1,22,3036,142
2020,8,23,3313,215
2020,5,14,1672,303
2020,5,31,636,116
2020,9,20,163,261
2020,10,5,1447,228
2020,8,9,1158,23
2020,6,11,3550,60
2020,8,14,658,142
2020,5,17,789,142
2020,12,2,217,293
2020,5,28,1231,233
2020,5,16,2158,142
2020,8,28,2950,309
2020,8,19,1985,260
2020,8,24,2517,192
2020,8,3,2349,99
2020,4,27,1486,303
2020,9,7,1266,60
2020,9,20,3260,63
2020,1,2,1952,296
2020,9,20,1342,279
2020,12,4,1664,215
2020,8,26,468,266
2020,10,1,1382,116
2020,5,31,2510,215
2020,5,21,2913,264
2020,11,27,2729,215
2020,5,10,106,215
2020,12,21,3342,260
2020,8,27,1888,264
2020,7,18,1692,296
2020,7,26,2409,215
2020,2,15,1952,293
2020,5,18,185,215
2020,1,14,542,260
2020,11,27,83,192
2020,10,26,640,134
2020,3,29,2007,261
2020,3,4,2592,60
2020,8,23,1950,168
2020,5,10,752,260
2020,7,4,3251,142
2020,8,25,3225,63
2020,7,12,234,99
2020,2,14,1672,63
2020,7,15,661,303
2020,5,3,454,70
2020,7,26,3056,266
2020,9,11,992,116
2020,4,7,2313,261
2020,8,27,590,192
2020,9,11,95,20
2020,9,10,724,20
2020,3,24,2901,233
2020,8,30,2361,215
2020,9,18,590,298
2020,2,14,651,142
2020,10,21,755,215
2020,8,12,1266,142
2020,2,18,3418,63
2020,10,24,1558,142
2020,10,30,1005,215
2020,6,2,1952,116
2020,7,25,1492,142
2020,6,8,2498,215
2020,7,28,1322,260
2020,2,14,3193,215
2020,7,4,1653,142
2020,7,24,3390,142
2019,12,28,2050,260
2020,9,16,2786,274
2020,6,7,254,142
2020,2,15,3188,233
2020,3,27,2020,260
2020,5,24,3399,192
2020,2,1,3251,142
2020,7,6,2726,142
2020,10,12,1382,142
2020,10,2,642,192
2020,7,24,1826,20
2020,6,23,830,142
2020,6,20,2726,67
2020,10,16,2372,192
2020,6,24,1342,88
2020,11,14,2546,23
2020,3,28,2191,63
2020,12,13,2493,233
2020,8,22,493,88
2020,10,25,1558,67
2020,4,17,640,192
2020,11,15,2345,60
2020,8,31,919,260
2020,2,16,1601,102
2020,5,10,1982,70
2020,8,25,2635,266
2020,10,24,3323,233
2020,8,17,3043,20
2020,5,5,26,215
2020,6,2,1492,192
2020,5,17,1233,215
2020,6,10,2950,142
2020,4,6,1301,31
2020,1,24,771,233
2020,8,26,3132,142
2020,5,26,3021,142
2020,9,30,1672,88
2020,5,6,909,215
2020,5,21,1382,215
2020,8,17,252,293
2020,5,7,1061,116
2020,4,17,1855,233
2020,1,30,2092,293
2020,7,6,330,192
2020,6,11,2950,304
2020,12,21,553,142
2020,7,13,2334,60
2020,7,16,83,60
2020,6,8,1111,116
2020,1,15,106,63
2020,4,26,1925,63
2020,9,17,692,192
2020,9,12,1274,279
2020,5,11,1513,102
2020,5,10,3028,142
2020,12,7,1220,192
2020,7,3,1753,116
2020,5,6,789,174
2020,5,6,3121,63
2020,6,1,1627,116
2020,3,11,2958,63
2020,5,23,904,103
2020,4,23,1067,192
2020,9,27,724,191
2020,2,18,202,233
2020,7,26,1933,142
2020,7,21,3500,63
2020,2,23,1367,60
2020,10,11,1426,60
2020,6,4,127,260
2020,7,8,1021,134
2020,6,10,1288,192
2020,10,6,2893,60
2020,1,12,3222,116
2020,6,5,536,20
2020,1,7,2086,192
2020,11,9,319,215
2020,6,17,2422,192
2020,9,2,992,279
2020,6,4,1418,142
2020,2,16,1131,130
2020,8,6,1612,233
2020,7,15,2299,125
2020,7,5,254,142
2020,8,20,141,63
2020,3,21,1957,52
2020,6,9,1870,148
2020,1,23,1212,63
2020,11,16,651,266
2020,8,17,937,298
2020,6,15,863,192
2020,12,5,2253,233
2020,10,24,2574,142
2020,8,15,2303,116
2020,4,28,548,261
2020,7,28,369,60
2020,1,14,2670,260
2020,10,23,3251,116
2020,8,7,2947,142
2020,2,17,1489,192
2020,7,26,3424,88
2020,5,19,697,260
2020,4,13,115,88
2020,5,11,1744,102
2020,5,31,559,295
2020,8,23,1060,142
2020,8,18,812,215
2020,9,7,60,60
2020,8,16,699,88
2020,5,21,1808,264
2020,3,11,310,293
2020,10,25,100,67
2020,6,10,2926,19
2020,9,11,1486,309
2020,1,5,1981,200
2020,8,18,2622,263
2020,3,30,3179,63
2020,8,9,1818,63
2020,6,6,1057,293
2020,6,1,2158,215
2020,9,12,854,88
2020,7,4,668,142
2020,8,18,2345,192
2020,8,22,2201,88
2020,5,7,1880,60
2020,10,16,823,20
2020,9,8,1539,50
2020,4,14,806,134
2020,9,27,469,266
2020,2,6,3113,260
2020,8,6,2345,233
2020,1,25,1149,174
2020,9,12,738,266
2020,6,5,2191,142
2020,3,27,1219,63
2020,5,14,2486,63
2020,8,25,2982,142
2020,7,17,1408,311
2020,11,20,919,266
2020,6,6,1915,142
2020,7,28,1736,142
2020,8,24,564,266
2020,8,11,337,168
2020,5,2,3095,174
2020,10,16,1220,192
2020,3,23,739,215
2020,2,16,127,102
2020,7,26,2954,301
2020,5,2,1382,226
2020,5,9,128,63
2020,4,20,1777,130
2020,5,31,794,215
2020,7,25,1625,60
2020,6,25,2919,20
2020,7,5,2479,142
2020,8,28,60,260
2020,1,19,1368,260
2020,8,1,2579,266
2020,8,25,2201,264
2020,8,15,789,298
2020,5,6,237,303
2020,5,20,1283,191
2020,3,26,913,215
2020,10,27,928,125
2020,8,15,2978,62
2020,1,18,2289,233
2020,5,18,2950,88
2020,6,23,185,260
2020,7,24,2629,116
2020,8,25,2302,142
2020,3,13,2122,303
2020,8,21,1736,260
2020,6,24,2493,116
2020,7,13,100,60
2020,10,25,1946,67
2020,1,19,863,18
2020,11,11,1447,142
2020,4,29,812,233
2020,6,3,2152,192
2020,4,9,1950,130
2020,5,16,319,102
2020,2,1,223,192
2020,5,6,2334,18
2020,8,27,1928,215
2020,11,19,1142,88
2020,9,30,256,298
2020,8,25,2538,20
2020,8,25,984,303
2020,12,2,1078,309
2020,12,16,765,192
2020,7,24,1145,116
2020,4,13,799,174
2020,5,11,2954,88
2020,4,2,2656,309
2020,6,1,1672,142
2020,8,31,2302,142
2020,6,22,2194,266
2020,7,17,860,266
2020,5,24,1558,261
2020,11,19,2452,23
2020,2,24,2201,125
2020,5,17,765,142
2020,5,30,1423,264
2020,8,25,3545,142
2020,6,12,337,63
2020,2,4,1520,63
2020,12,16,1480,215
2020,5,30,2779,103
2020,8,29,2286,233
2020,6,26,60,124
2020,7,14,2479,207
2020,6,11,1952,192
2020,7,15,3025,142
2020,7,28,3193,266
2020,5,17,1520,298
2020,5,31,1447,215
2020,2,14,2175,192
2020,5,11,493,174
2020,8,30,3323,298
2020,6,2,428,142
2020,9,1,3350,60
2020,9,3,2622,304
2020,2,21,3568,226
2020,7,26,3130,301
2020,8,9,2635,23
2020,8,29,1492,60
2020,5,6,485,215
2020,5,5,794,102
2020,5,6,332,125
2020,2,16,2963,215
2020,8,25,1020,142
2020,1,30,3036,102
2020,6,6,812,192
2020,7,15,1205,264
2020,9,11,1771,142
2020,5,22,680,296
2020,9,9,2281,60
2020,8,24,1202,303
2020,6,5,724,20
2020,5,5,2195,215
2020,4,3,1733,261
2020,8,18,1513,20
2020,5,31,3130,215
2020,10,22,3444,142
2020,3,21,1623,233
2020,7,22,1692,142
2020,4,19,3470,293
2020,8,16,928,20
2020,3,24,660,233
2020,7,30,1510,142
2020,9,11,3113,142
2020,6,5,2480,20
2020,8,24,2936,142
2020,12,14,2867,303
2020,3,21,318,192
2020,9,19,975,142
2020,8,7,237,215
2020,5,17,1205,102
2020,9,4,185,142
2020,8,15,2959,62
2020,6,19,1098,134
2020,7,16,1057,142
2020,10,12,115,162
2020,7,13,651,70
2019,12,30,1826,130
2020,6,20,1591,215
2020,8,3,3490,60
2020,6,4,3567,266
2020,9,4,1283,215
2020,8,17,3297,260
2020,6,2,310,192
2020,9,4,1205,20
2020,12,23,3004,23
2020,9,27,1982,191
2020,12,4,1315,192
2020,5,18,651,60
2020,11,5,1150,20
2020,9,27,1861,266
2020,8,21,3005,274
2020,9,18,3233,142
2020,7,22,354,60
2020,3,24,1601,233
2020,9,19,1149,88
2020,8,5,2591,142
2020,2,4,1969,63
2020,8,25,888,313
2020,4,2,1130,142
2020,8,21,3429,60
2020,1,20,1070,192
2020,6,26,1733,142
2020,7,27,258,192
2020,10,24,434,202
2020,7,13,1912,298
2020,2,26,2786,130
2020,7,1,262,142
2020,12,5,2959,142
2020,8,24,3101,304
2020,1,23,1900,293
2020,3,7,926,63
2020,8,24,1969,142
2020,2,13,771,233
2020,9,18,668,20
2020,4,19,2852,309
2020,1,16,1600,174
2020,5,6,1549,215
2020,1,23,2493,293
2020,6,8,703,63
2020,5,18,2378,130
2020,10,23,1601,116
2020,9,27,2907,191
2020,10,23,2374,233
2020,8,7,1408,125
2020,7,28,2950,20
2020,10,11,3568,134
2020,1,12,3323,293
2020,3,22,1763,303
2020,2,11,1364,268
2020,7,1,1408,142
2020,7,1,319,168
2020,7,30,2201,99
2020,5,27,2302,142
2020,11,20,3333,293
2020,7,13,834,70
2020,5,10,1797,215
2020,5,7,49,174
2020,8,1,2459,266
2020,7,30,2450,142
2020,5,19,319,142
2020,8,15,299,302
2020,6,17,3568,60
2020,1,27,185,303
2020,5,5,434,60
2020,9,21,3097,63
2020,6,21,548,215
2020,5,9,661,116
2020,12,3,553,142
2020,6,30,1793,102
2020,6,5,1098,266
2020,7,29,1798,263
2020,6,1,3329,298
2020,3,28,2409,63
2020,2,24,3041,290
2020,5,9,738,142
2020,7,12,310,116
2020,9,25,81,192
2020,8,21,564,304
2020,7,12,3542,226
2020,1,8,2945,88
2020,5,10,207,215
2020,6,23,3093,192
2020,3,22,2085,31
2020,3,3,1396,130
2020,5,5,2867,116
2020,6,14,8,192
2020,1,5,60,233
2020,3,27,2867,192
2020,3,27,1915,260
2020,11,23,2760,23
2020,12,7,2079,142
2020,4,4,3155,260
2020,8,9,3372,63
2020,9,2,2510,260
2020,8,2,1870,266
2020,2,6,3534,293
2020,10,15,62,215
2020,4,7,882,260
2020,3,26,617,212
2020,8,27,3155,192
2020,2,16,3451,226
2020,6,30,3333,142
2020,6,5,124,142
2020,5,10,1878,63
2020,7,17,3567,260
2020,5,11,794,116
2020,1,2,724,192
2020,8,24,2506,142
2020,8,5,1781,142
2020,7,1,2166,215
2020,9,2,1172,192
2020,7,10,738,116
2020,3,4,1305,67
2020,5,23,2107,215
2020,4,4,3449,260
2020,3,2,1150,142
2020,6,23,3449,103
2020,5,2,97,212
2020,4,19,2152,309
2020,4,12,2963,200
2020,12,4,618,191
2020,3,3,1070,70
2020,4,23,3337,309
2020,11,21,2727,142
2020,8,26,2378,215
2020,8,22,651,88
2020,8,17,3025,88
2020,10,3,698,311
2020,3,26,591,67
2020,5,16,2069,260
2020,6,7,2959,19
2020,12,14,1255,142
2020,3,26,487,174
2019,12,29,1772,130
2020,8,23,698,311
2020,6,3,1408,142
2020,5,16,729,293
2020,7,31,1652,142
2020,9,7,2420,261
2020,5,18,812,142
2020,6,7,2807,260
2020,6,12,1541,142
2020,9,4,703,130
2020,11,11,3194,142
2020,7,15,802,88
2020,12,24,97,215
2020,1,5,2120,192
2020,8,25,3116,313
2020,10,24,665,192
2020,3,28,489,215
2020,9,4,904,142
2020,7,14,1130,192
2020,2,15,1095,233
2020,4,20,2238,174
2020,8,18,1397,116
2020,12,13,1692,142
2020,11,7,1554,226
2020,10,30,97,274
2020,6,5,1754,192
2020,5,10,2121,63
2020,2,1,3568,260
2020,12,12,524,192
2020,7,28,485,266
2020,3,26,3439,309
2020,7,14,1454,293
2020,9,12,1333,142
2020,12,6,2178,162
2020,9,9,1450,215
2020,8,3,2032,69
2020,7,17,1552,260
2020,5,16,2852,60
2020,9,18,3492,266
2020,7,30,325,233
2020,3,10,630,215
2020,8,31,234,266
2020,2,14,1820,63
2020,3,22,2086,192
2020,8,15,234,20
2020,3,25,651,63
2020,8,18,1839,264
2020,8,2,3429,284
2020,5,19,1950,142
2020,4,4,1549,192
2020,5,18,1772,215
2020,10,6,1674,20
2020,9,20,276,20
2020,8,11,3266,192
2020,3,18,3549,200
2020,5,16,1245,260
2020,6,1,2913,20
2020,5,5,1513,63
2020,6,14,3567,192
2020,12,9,699,298
2020,5,18,1879,142
2020,4,9,37,142
2020,9,2,191,279
2020,11,4,1619,215
2020,12,24,56,20
2020,7,29,435,23
2020,5,25,3220,142
2020,6,1,0,20
2020,6,25,855,233
2020,9,5,1736,130
2020,7,1,3399,266
2020,6,8,1441,20
2020,2,28,2405,63
2020,3,7,984,125
2020,8,18,3399,20
2020,8,20,2867,296
2020,7,13,651,60
2020,12,18,2836,142
2020,3,26,1898,67
2020,11,9,3323,301
2020,3,23,1179,18
2020,5,11,1534,88
2020,7,25,1933,20
2020,7,29,2459,116
2020,7,5,265,20
2020,7,15,1255,226
2020,11,20,127,192
2020,5,6,88,63
2020,7,31,1368,312
2020,8,23,88,116
2020,6,11,1111,192
2020,2,15,334,215
2020,8,25,1144,142
2020,6,11,3399,192
2020,5,26,2770,293
2020,2,4,30,15
2020,4,20,3189,192
2020,7,13,618,266
2020,6,8,722,116
2020,11,20,922,266
2020,7,15,3535,266
2020,8,9,584,63
2020,10,5,2140,228
2020,4,3,3039,261
2020,8,16,3101,215
2020,5,6,1898,125
2020,1,15,1219,260
2020,10,2,642,279
2020,4,23,487,192
2020,5,13,698,67
2020,11,23,2367,303
2020,7,26,1422,226
2020,12,3,2822,116
2020,6,8,1772,125
2020,7,15,2283,63
2020,11,20,260,192
2020,8,11,2155,142
2020,5,6,3025,174
2020,12,14,3577,142
2020,9,11,1255,279
2020,10,20,2472,226
2020,12,1,903,168
2020,7,18,184,268
2020,7,11,881,99
2020,9,3,2904,233
2020,7,15,147,264
2020,11,15,724,60
2020,7,26,1681,103
2020,12,5,724,266
2020,7,29,2255,142
2020,2,8,217,200
2020,7,28,475,142
2020,8,15,1612,116
2020,7,26,2402,60
2020,7,28,3097,20
2020,8,17,3550,298
2020,6,3,1692,116
2020,5,16,234,226
2020,11,26,2032,215
2020,8,8,1808,233
2020,12,11,698,134
2020,8,24,2478,301
2020,3,26,928,31
2020,1,30,3350,174
2020,6,20,81,67
2020,10,27,1175,67
2020,4,13,3245,67
2020,8,21,294,304
2020,3,6,795,142
2020,2,1,1130,142
2020,9,19,3130,20
2020,2,20,2120,174
2020,1,23,1797,296
2020,8,25,2907,116
2020,4,4,133,130
2020,12,14,1329,63
2020,9,12,3424,279
2019,12,28,2358,260
2020,11,3,3372,142
2020,3,23,2726,215
2020,10,4,1665,311
2020,5,17,928,192
2020,8,16,2914,266
2020,9,19,888,303
2020,8,17,1223,162
2020,10,25,1342,200
2020,6,5,888,20
2020,4,19,1971,67
2020,8,20,1636,266
2020,8,28,2400,174
2020,9,5,2913,142
2020,10,23,2670,99
2020,9,7,2068,142
2019,12,30,956,130
2020,7,21,1239,63
2020,4,29,943,134
2020,9,2,3116,142
2020,4,2,2333,303
2020,7,2,1744,261
2020,5,16,656,116
2020,4,6,40,215
2020,11,17,3228,63
2020,3,28,1253,215
2020,8,23,2982,266
2020,9,1,642,263
2019,12,28,3404,260
2020,9,4,2150,88
2020,5,10,548,60
2020,11,7,3002,215
2020,6,6,33,293
2020,4,4,651,192
2020,8,4,1150,233
2020,6,8,192,233
2020,1,2,1636,303
2020,9,3,1285,215
2020,12,13,2166,142
2020,11,9,2538,301
2020,8,15,3387,60
2020,8,8,1305,142
2020,11,16,106,266
2020,5,25,3439,67
2020,12,4,1513,191
2020,10,7,1982,125
2020,8,18,434,23
2020,7,15,434,233
2020,6,25,1098,142
2020,5,6,3097,174
2020,5,6,2852,142
2020,8,1,3116,116
2020,5,30,276,103
2020,5,6,2321,207
2020,1,15,882,174
2020,6,4,2120,142
2020,7,29,2822,293
2020,11,24,1305,298
2020,3,3,3323,62
2020,7,29,1034,20
2020,10,10,1592,233
2020,8,14,738,266
2020,7,25,468,266
2020,9,6,1672,20
2020,5,18,1636,60
2020,9,12,3342,142
2020,9,9,328,260
2020,10,10,878,215
2020,5,17,2959,192
2020,2,14,237,207
2020,6,25,1777,60
2020,11,15,8,125
2020,5,22,1549,23
2020,7,28,548,60
2020,10,22,2905,263
2020,10,25,2913,200
2020,5,30,3350,264
2020,10,26,3222,266
2020,6,24,1672,88
2020,5,17,2510,192
2020,9,29,403,233
2020,5,1,461,67
2020,5,16,3113,60
2020,5,18,2901,266
2020,10,27,992,215
2020,9,12,2620,142
2020,9,20,2020,20
2020,8,21,1466,212
2020,8,15,2245,20
2020,5,6,1692,296
2020,6,4,857,215
2020,1,15,2405,174
2020,5,13,3338,174
2020,6,24,909,142
2020,9,21,3399,63
2020,5,8,1454,215
2020,7,21,2063,63
2020,6,11,2726,20
2020,9,29,3342,88
2020,12,1,1463,266
2020,9,3,3097,293
2020,8,1,1772,116
2020,5,6,178,63
2020,7,13,1689,116
2020,6,8,3550,142
2020,7,29,1867,215
2020,5,14,1219,67
2020,6,7,3375,192
2020,9,14,2554,226
2020,10,20,2726,211
2020,2,15,3287,233
2020,9,11,1158,303
2020,10,25,2345,233
2020,8,25,1549,88
2020,7,1,1777,116
2020,9,6,1095,290
2020,7,26,2954,88
2020,9,19,1982,88
2020,5,17,2479,142
2020,9,9,1729,142
2020,4,13,691,174
2020,10,13,1076,125
2020,6,1,672,162
2020,10,3,2726,311
2020,1,11,434,125
2020,5,31,642,266
2020,11,28,237,60
2020,4,13,3399,260
2019,12,28,2302,260
2020,8,27,2891,274
2020,10,24,2455,192
2020,8,15,206,20
2020,8,20,2919,60
2020,8,15,3323,263
2020,7,29,1149,60
2020,11,20,2409,142
2020,2,1,266,192
2020,9,1,2959,297
2020,5,30,2041,295
2020,4,29,988,215
2020,12,3,975,116
2020,6,13,1313,192
2019,12,26,1071,260
2020,8,25,2595,130
2020,7,15,2743,20
2020,3,26,2405,31
2020,11,30,1952,125
2020,3,27,318,260
2020,10,5,2408,215
2020,7,1,2020,102
2020,10,5,2913,268
2020,11,10,3553,116
2020,8,18,3500,266
2020,6,5,2005,192
2020,8,26,1808,20
2020,6,1,967,264
2020,7,14,2321,102
2020,6,2,3229,215
2020,3,26,2383,192
2020,5,30,1549,142
2020,7,13,1158,60
2020,1,23,2625,134
2020,4,23,812,192
2020,6,28,280,125
2020,6,25,988,226
2020,8,30,1619,142
2020,5,14,2016,63
2020,6,4,1736,215
2020,2,15,1625,233
2020,2,15,3023,293
2020,8,1,707,266
2020,5,3,218,116
2020,3,25,334,63
2020,8,18,2729,168
2020,8,15,637,266
2020,7,17,1305,311
2020,7,30,2059,63
2020,1,13,1058,192
2020,2,15,765,125
2020,5,5,1981,60
2020,8,24,127,303
2020,9,3,1482,20
2020,5,21,2378,266
2020,5,10,2619,192
2019,12,29,106,130
2020,8,20,434,266
2020,12,13,2965,293
2020,5,31,1559,295
2020,8,7,3531,99
2020,4,13,2665,260
2020,7,16,724,215
2020,8,26,3351,157
2020,5,31,318,202
2020,7,18,1682,142
2020,7,7,3004,303
2020,9,3,55,116
2020,7,4,3399,192
2020,5,11,2191,174
2020,10,26,1158,192
2020,7,30,2152,266
2020,4,3,194,261
2020,9,27,3258,142
2020,7,26,1131,303
2020,10,29,2517,264
2020,3,18,1513,293
2020,6,2,742,215
2020,5,5,3025,60
2020,1,30,2852,303
2020,8,20,1482,63
2020,7,28,630,142
2020,7,28,1849,142
2020,6,24,3251,116
2020,7,25,2020,260
2020,9,3,3323,297
2020,10,27,434,125
2020,7,26,3509,174
2020,7,14,922,60
2020,6,3,3023,192
2020,6,5,2236,54
2020,11,30,3025,125
2020,12,23,1808,226
2020,9,19,2378,142
2020,11,9,115,215
2020,9,8,1104,50
2020,9,6,881,215
2020,12,8,1772,215
2020,12,2,1364,88
2020,9,12,3567,309
2020,7,25,1095,142
2020,12,20,1686,192
2020,9,18,2372,260
2020,11,22,888,301
2020,5,18,699,215
2020,7,13,1131,215
2020,4,22,2059,130
2020,8,7,310,215
2020,5,3,668,63
2020,6,11,764,60
2020,7,14,548,202
2020,12,23,2490,264
2020,8,7,2397,70
2020,1,3,2949,215
2020,5,6,332,63
2020,7,16,1879,215
2020,6,7,3116,20
2020,1,13,888,192
2020,7,24,1507,54
2020,9,11,672,226
2020,8,15,2493,263
2020,7,15,640,293
2020,6,26,2771,215
2020,9,7,2207,60
2020,7,25,2904,20
2020,9,3,2195,233
2020,4,25,2676,116
2020,7,26,3388,263
2020,8,22,724,264
2020,4,27,3155,134
2020,7,23,2797,142
2020,3,10,1039,62
2020,12,14,2409,303
2020,11,6,2506,142
2020,6,24,1950,279
2020,8,25,755,303
2020,7,14,2698,20
2020,5,19,3497,192
2020,6,5,445,142
2020,7,18,730,296
2020,6,4,282,130
2020,10,8,509,142
2020,8,7,1316,260
2020,7,2,2751,215
2020,8,18,2670,266
2020,4,25,2786,63
2020,5,10,337,102
2020,8,17,2913,20
2020,9,5,3054,130
2020,2,3,1026,311
2020,11,18,3155,125
2020,8,15,2665,263
2020,8,26,234,142
2020,6,3,3340,142
2020,5,24,3260,192
2020,6,3,1898,266
2020,1,23,588,31
2020,9,1,1447,142
2020,1,23,185,293
2019,12,29,3116,130
2020,2,24,310,260
2020,6,2,730,116
2020,8,21,1917,148
2020,7,15,28,215
2020,6,19,3116,134
2020,7,25,1554,62
2020,7,28,1625,266
2020,12,23,1969,303
2020,3,27,2549,211
2020,11,7,2493,260
2020,6,22,3260,298
2020,7,2,975,298
2020,4,30,641,260
2020,1,13,1060,63
2020,11,26,428,260
2020,6,6,2188,266
2020,6,13,700,202
2020,4,12,1219,142
2020,8,15,2867,263
2020,8,2,1220,284
2020,7,8,2467,116
2020,1,24,2202,116
2020,1,31,1513,260
2020,7,10,1015,60
2020,11,3,3449,301
2020,9,9,630,303
2020,5,11,829,168
2020,8,1,729,20
2020,5,16,731,102
2020,7,21,3194,142
2020,6,3,1098,192
2020,7,20,653,284
2020,6,27,1144,297
2020,10,26,444,102
2020,8,28,455,215
2020,8,30,3429,20
2020,8,2,680,266
2020,5,31,2018,202
2020,9,5,2592,192
2020,7,30,3179,192
2020,4,23,2121,192
2020,5,9,2525,192
2020,8,11,487,260
2020,12,6,700,192
2020,9,16,2387,125
2020,9,3,2302,266
2020,9,20,1150,215
2020,1,13,2852,192
2020,6,10,2907,298
2020,4,26,1692,303
2020,3,21,975,192
2020,9,2,2554,142
2019,12,26,49,168
2020,8,27,2554,69
2020,8,15,2982,263
2020,5,13,587,102
2020,2,16,421,63
2020,9,5,2670,215
2020,8,8,1592,142
2020,4,29,1828,260
2020,7,16,1564,142
2020,6,7,2158,192
2020,4,2,3515,63
2020,11,19,3319,302
2020,7,14,1681,142
2020,6,5,1933,20
2020,6,18,1915,311
2020,5,20,1451,191
2020,8,26,2619,60
2020,7,26,640,88
2020,1,26,587,174
2020,9,12,318,142
2020,11,9,3193,102
2020,7,14,201,266
2020,10,25,1828,200
2020,9,20,2472,20
2020,8,15,724,142
2019,12,29,3264,60
2020,9,28,2486,215
2020,6,2,1619,142
2020,10,24,1534,202
2020,11,1,2506,192
2020,7,15,106,293
2020,4,13,587,260
2020,10,12,3354,284
2020,8,29,282,142
2020,2,14,2403,215
2020,4,7,3260,311
2020,7,15,1382,192
2020,5,10,3204,70
2020,9,25,2890,67
2020,10,18,52,125
2020,2,13,1060,174
2020,5,10,3364,293
2020,10,3,2160,19
2020,6,7,365,20
2020,8,18,254,215
2020,9,21,1777,192
2020,10,23,640,192
2020,11,16,1619,67
2020,7,14,1975,207
2020,9,27,319,191
2020,7,28,1253,142
2020,11,20,1772,142
2020,11,20,2121,192
2020,1,15,1923,174
2020,7,29,97,303
2020,8,23,591,266
2020,3,5,584,293
2020,10,10,2827,301
2020,6,6,97,192
2020,5,15,2255,233
2020,9,23,1313,233
2020,8,23,724,266
2020,4,28,3237,60
2020,8,18,1067,125
2020,8,13,719,48
2020,9,3,1067,293
2020,6,2,2724,116
2020,1,15,2950,63
2020,4,29,3139,215
2020,5,5,434,168
2019,12,29,699,130
2020,8,18,1900,116
2020,6,5,1191,192
2020,11,30,2178,125
2020,9,1,967,266
2020,8,5,715,264
2020,8,25,1202,116
2020,7,8,1537,125
2020,3,10,1423,296
2020,3,15,207,60
2020,11,15,2818,279
2020,7,30,2982,266
2020,7,1,2934,304
2020,3,22,3237,296
2020,5,10,2987,63
2020,6,8,1020,233
2020,7,4,2412,116
2020,9,12,660,260
2020,7,29,319,20
2020,3,23,731,215
2020,6,4,562,142
2020,2,3,332,311
2020,2,15,897,192
2020,10,9,2493,116
2020,7,13,127,70
2020,10,18,1975,261
2020,5,9,3023,88
2020,3,30,3380,192
2020,10,5,3568,142
2020,5,6,1679,260
2020,6,3,1690,254
2020,8,10,2387,266
2020,5,18,108,142
2020,8,15,1150,142
2020,5,23,1828,215
2020,8,23,2937,192
2020,5,30,795,142
2020,10,27,1202,142
2020,9,7,2779,293
2020,7,30,2066,157
2020,9,9,3568,215
2020,5,17,1879,192
2020,8,7,562,142
2020,8,22,1950,264
2020,8,22,3323,88
2020,11,18,490,260
2020,11,26,246,260
2020,12,9,2625,298
2020,8,23,1625,142
2020,10,7,2982,125
2020,6,30,1223,67
2020,11,10,3221,142
2020,7,21,194,67
2020,5,6,3291,63
2020,6,19,739,140
2020,1,13,2565,192
2020,11,20,1636,192
2020,8,25,3399,20
2020,8,25,1450,116
2020,8,18,1368,192
2020,5,23,984,60
2020,5,11,1172,303
2020,4,6,329,116
2020,2,3,3223,309
2020,10,30,755,274
2020,4,1,3500,63
2020,7,2,2778,134
2020,8,24,42,142
2020,3,23,1202,63
2020,3,25,3515,60
2020,8,5,2797,263
2020,7,12,1247,226
2020,11,14,1609,215
2020,4,28,1859,260
2020,7,1,128,63
2020,6,14,1672,142
2020,8,31,2665,116
2020,5,30,1102,264
2020,3,28,1520,293
2020,7,15,2867,293
2020,7,6,2958,20
2020,11,4,1305,116
2020,7,6,1826,192
2020,9,11,1015,309
2020,3,22,1342,174
2020,8,31,1859,20
2020,5,3,493,125
2020,8,22,975,88
2020,8,15,1305,67
2020,12,8,465,116
2020,3,24,1101,63
2020,6,2,3121,20
2020,8,24,1403,192
2020,3,22,2950,31
2020,8,23,1825,260
2020,5,6,1045,18
2020,5,23,2020,102
2020,3,18,3273,260
2020,2,1,812,303
2020,5,31,220,20
2020,5,5,3429,226
2020,9,11,881,266
2020,3,30,1653,293
2020,2,15,1219,293
2020,1,8,696,142
2020,8,23,2059,63
2020,8,22,676,168
2020,3,20,1486,260
2020,3,28,81,215
2020,4,13,2890,303
2020,3,7,1149,125
2020,9,2,2554,260
2020,8,28,984,260
2020,3,10,127,296
2020,5,11,115,303
2020,4,12,3130,200
2020,1,4,2245,260
2020,8,28,3130,134
2020,6,5,1451,266
2020,6,11,1565,116
2020,5,10,2670,60
2020,8,18,489,266
2020,5,11,1975,88
2020,8,25,3130,142
2020,12,21,2726,142
2020,7,2,3155,298
2020,9,11,1861,233
2020,6,24,2409,88
2020,11,15,2635,215
2020,10,8,1492,102
2020,8,27,2616,268
2020,8,28,1450,174
2020,6,1,618,266
2020,5,27,1588,233
2020,10,9,930,134
2020,5,14,100,215
2020,5,9,2525,63
2020,8,17,3500,293
2020,7,30,1423,266
2020,7,8,1658,134
2020,1,26,3116,174
2020,8,13,2898,134
2020,5,5,2954,63
2020,5,21,106,264
2020,9,12,2670,88
2020,2,14,1396,207
2020,1,3,3537,293
2020,11,17,1301,212
2020,8,21,1911,116
2020,8,8,3321,142
2020,8,25,2741,142
2020,12,2,111,142
2020,5,6,3097,260
2020,4,27,1049,303
2020,10,15,791,192
2020,10,16,909,20
2020,10,31,1953,20
2020,6,3,700,192
2020,7,6,718,215
2020,12,21,1736,192
2020,1,20,1364,192
2020,10,1,1793,88
2020,5,28,975,20
2020,7,13,434,215
2020,12,5,724,298
2020,8,15,3399,226
2020,9,19,3212,260
2020,10,7,3097,298
2020,7,26,2506,260
2020,2,15,1378,233
2020,8,24,3155,303
2020,9,19,3225,266
2020,10,23,703,233
2020,5,21,332,70
2020,4,25,3108,260
2020,2,16,3179,130
2020,3,20,3497,260
2020,9,15,383,88
2020,1,26,3408,60
2020,6,2,651,130
2020,12,7,2890,142
2020,7,12,1672,99
2020,7,26,3442,102
2020,8,3,2498,211
2020,5,24,3519,192
2020,5,2,975,261
2020,4,19,127,309
2020,7,14,381,303
2020,7,28,1158,142
2020,2,16,3049,233
2020,11,18,3472,215
2020,7,16,2195,67
2020,5,23,3424,60
2020,9,11,3097,303
2020,9,11,254,266
2020,6,11,2565,264
2020,7,25,3567,63
2020,9,11,2809,20
2020,6,6,2514,142
2020,10,3,2867,192
2020,5,6,960,60
2020,8,25,1396,313
2020,2,11,372,260
2020,8,1,8,266
2020,8,27,1111,192
2020,6,25,1828,142
2020,9,3,2570,116
2020,3,12,1068,212
2020,5,27,514,116
2020,7,16,810,279
2020,8,25,3237,298
2020,8,30,276,142
2020,11,17,3260,215
2020,4,3,1143,261
2020,1,19,1165,233
2020,5,5,2851,296
2020,7,22,2726,67
2020,9,18,2598,20
2020,8,7,1060,233
2020,2,16,888,70
2020,9,10,1149,20
2020,6,15,19,116
2020,10,24,3334,60
2020,8,27,1520,303
2020,3,30,637,303
2020,8,15,365,20
2020,6,26,1450,215
2020,3,10,3399,192
2020,4,22,2486,130
2020,8,15,2758,116
2020,8,26,797,266
2020,7,25,3530,296
2020,1,23,60,293
2020,9,1,485,266
2020,10,17,582,20
2020,7,10,2996,233
2020,6,11,2729,304
2020,9,7,2797,301
2020,5,10,3043,303
2020,9,10,922,266
2020,8,15,3155,263
2020,8,23,1197,20
2020,10,7,1548,125
2020,7,22,3261,298
2020,8,9,1825,215
2019,12,30,3251,130
2020,5,17,3260,192
2020,8,6,3545,63
2020,2,4,2954,63
2020,7,13,2954,70
2020,11,29,1859,192
2020,8,16,1828,88
2020,9,18,719,125
2020,5,9,2950,142
2020,5,10,2687,60
2020,10,7,698,298
2020,11,12,3399,142
2020,8,8,1158,260
2020,7,8,894,298
2020,11,1,771,63
2020,9,12,624,88
2020,7,10,303,260
2020,5,16,2383,142
2020,3,9,665,260
2020,8,14,724,142
2020,5,6,323,116
2020,5,18,1458,142
2020,5,21,2625,192
2020,10,10,3025,233
2020,11,12,1636,142
2020,8,25,3242,103
2020,6,25,2082,260
2020,7,30,2914,279
2020,7,31,3429,192
2020,1,26,504,293
2020,7,16,591,142
2020,6,12,1923,67
2020,9,13,2440,260
2019,12,30,276,217
2020,6,10,1828,298
2020,7,26,1671,266
2020,8,24,487,142
2020,8,26,1494,142
2020,9,19,311,303
2020,5,18,1219,88
2020,5,23,1121,142
2020,12,13,1492,233
2020,8,25,1898,142
2020,7,26,2121,264
2020,10,19,108,148
2020,7,30,2963,304
2020,7,30,1772,142
2020,9,11,1133,266
2020,8,16,2899,20
2020,7,1,2121,274
2020,8,24,2982,304
2020,3,19,591,63
2020,9,19,2152,303
2020,3,29,1281,67
2020,7,1,3562,215
2020,8,25,100,116
2020,8,11,2020,142
2020,7,24,848,157
2020,1,23,1103,134
2020,5,5,668,293
2020,8,21,1223,162
2020,3,11,2567,260
2020,10,30,2455,67
2020,9,19,96,130
2020,3,4,1975,67
2020,6,5,3429,264
2020,8,9,337,266
2020,8,27,2377,215
2020,3,11,3279,174
2020,5,16,1779,142
2020,1,2,2996,296
2020,5,13,1418,70
2020,8,23,542,20
2020,5,4,185,174
2020,3,4,618,60
2020,5,10,3580,268
2020,11,22,1878,301
2020,6,1,2554,260
2020,6,2,1653,130
2020,10,30,3545,215
2020,9,20,1530,293
2020,7,29,1793,116
2020,12,9,265,192
2020,5,10,1653,309
2020,2,23,1971,60
2020,3,2,3339,215
2020,9,9,590,215
2020,5,16,1690,293
2020,7,26,904,142
2020,3,22,973,102
2020,1,6,469,125
2020,4,4,3372,192
2020,6,10,1735,215
2020,5,11,2907,174
2020,8,11,752,142
2020,5,18,2603,142
2020,4,27,2713,215
2020,1,24,1237,60
2020,7,24,739,20
2020,2,15,216,215
2020,6,2,3576,142
2020,5,6,2950,303
2020,5,19,1518,261
2020,11,26,2334,260
2020,1,2,2191,303
2020,7,31,1765,142
2020,4,13,191,157
2020,2,13,1266,174
2020,10,18,3350,261
2020,3,16,882,192
2020,7,15,1356,311
2020,7,1,1332,60
2020,4,30,1071,215
2020,6,5,1021,266
2020,7,11,1951,215
2020,5,10,107,215
2020,1,4,220,260
2020,8,16,319,215
2020,8,21,1975,116
2020,8,24,434,142
2020,6,1,1220,142
2020,6,24,1217,125
2020,5,23,1630,260
2020,2,16,3427,63
2020,5,23,1158,102
2020,8,15,1309,62
2020,4,5,3320,260
2020,5,10,1418,142
2020,7,8,1067,116
2020,11,20,3251,192
2020,1,23,1202,134
2020,5,17,2653,88
2020,3,11,1878,293
2020,5,16,3509,116
2020,8,26,1423,215
2020,6,11,2881,20
2020,6,16,1950,279
2020,8,13,3581,99
2020,5,31,2881,142
2020,8,21,3025,260
2020,1,16,2151,215
2020,2,26,909,130
2020,8,15,715,67
2020,10,3,2907,192
2020,9,11,1849,116
2020,8,23,3530,63
2020,8,7,3194,142
2020,8,31,731,142
2020,8,26,1878,20
2020,10,5,765,142
2020,6,12,1558,67
2020,5,9,3097,18
2020,12,6,2334,311
2020,6,14,2580,192
2020,2,13,967,215
2020,5,10,2890,63
2020,3,27,882,192
2020,9,30,724,88
2020,12,6,68,303
2020,5,17,2207,116
2020,1,15,1149,260
2020,7,1,2110,20
2020,6,1,730,266
2020,9,13,2850,142
2020,3,7,485,192
2020,8,10,1537,233
2020,10,27,2554,125
2020,9,8,1476,63
2020,5,6,771,174
2020,7,4,2592,153
2020,7,26,2409,303
2020,6,2,909,142
2020,10,28,1202,134
2020,3,27,1828,260
2020,8,9,1774,142
2020,6,22,562,142
2020,9,12,1111,125
2020,5,17,2493,298
2020,1,19,266,293
2020,8,24,1441,215
2020,5,25,3467,142
2020,7,30,2155,99
2020,10,30,3260,67
2020,10,24,2125,192
2020,6,23,2068,260
2020,3,22,1636,174
2020,7,1,1224,260
2020,12,6,3323,192
2020,8,25,1125,215
2020,11,27,2020,215
2020,5,31,739,215
2020,11,2,3054,67
2020,2,6,115,260
2020,4,27,1606,303
2020,4,27,729,303
2020,5,10,1576,293
2020,9,12,2378,125
2020,7,10,2076,260
2020,11,11,2290,142
2020,5,6,553,296
2020,8,23,468,63
2020,7,29,1595,142
2020,6,6,1744,212
2020,8,25,3046,298
2020,6,7,1142,20
2020,6,13,943,260
2020,6,2,548,116
2020,5,16,191,157
2020,7,26,3372,174
2020,10,6,2822,142
2020,3,23,642,63
2020,7,19,3090,215
2020,8,29,1212,233
2020,1,13,1451,215
2020,1,11,1098,125
2020,12,2,2069,60
2020,9,10,1969,70
2020,7,29,1834,174
2020,7,10,1915,233
2020,7,29,3070,116
2020,6,19,1150,134
2020,7,2,1808,298
2020,10,16,928,20
2020,8,25,1879,88
2020,8,18,1418,266
2020,8,17,1215,88
2020,8,9,69,215
2020,10,17,1149,20
2020,5,6,1599,63
2020,5,21,2996,70
2020,2,5,1420,207
2020,11,25,2836,266
2020,11,13,2358,192
2020,8,25,1606,266
2020,6,14,1233,268
2020,5,16,2121,260
2020,5,6,928,303
2020,3,21,882,192
2020,9,2,2622,142
2020,8,31,2907,116
2020,4,13,2907,88
2020,4,15,2141,174
2020,9,8,1007,116
2020,6,12,3449,67
2020,7,28,1095,23
2020,8,18,955,215
2020,8,15,1825,125
2020,8,25,2546,88
2020,6,26,2625,124
2020,7,28,217,20
2020,4,28,731,261
2020,7,31,2635,142
2020,9,19,2191,88
2020,8,28,1543,293
2020,3,27,1826,260
2020,7,6,469,192
2020,8,30,930,298
2020,12,20,1601,192
2020,9,10,1772,70
2020,7,1,2125,20
2020,8,27,1058,303
2020,4,29,1283,215
2020,12,23,3101,192
2020,4,27,2867,134
2020,9,8,60,63
2020,8,18,19,142
2020,10,24,2289,60
2020,9,12,1828,266
2020,9,11,2405,20
2020,4,16,2514,125
2020,5,6,147,63
2020,6,19,1601,215
2020,9,1,2726,142
2020,10,12,1686,142
2020,5,23,2121,60
2020,2,15,485,88
2020,8,11,2405,174
2020,4,29,97,260
2020,3,29,651,290
2020,2,16,882,70
2020,8,18,274,215
2020,2,6,651,142
2020,7,17,127,20
2020,10,7,1364,54
2020,8,13,3084,312
2020,6,10,115,60
2020,6,1,805,191
2020,7,25,1048,266
2020,9,1,590,60
2020,12,25,3113,130
2020,10,3,1150,192
2020,7,5,1418,233
2020,5,5,2592,63
2020,8,21,237,60
2020,9,2,1782,31
2020,10,7,2387,215
2020,8,25,1095,304
2020,11,2,2779,261
2020,9,11,752,142
2020,6,3,3587,60
2020,4,29,1898,309
2020,2,1,108,260
2020,4,8,2978,116
2020,6,5,2726,266
2020,6,1,548,260
2020,6,8,1548,142
2020,4,12,1915,142
2020,7,26,336,226
2020,11,21,2565,134
2020,3,26,1283,88
2020,12,14,3130,303
2020,9,21,1422,215
2020,5,18,2486,130
2020,7,18,337,266
2020,8,25,3130,266
2020,6,8,1772,233
2020,1,8,724,311
2020,9,11,2387,226
2020,7,29,1635,116
2020,8,9,984,192
2020,8,15,3023,226
2020,7,31,1253,309
2020,1,10,823,174
2020,7,28,1121,260
2020,2,20,469,174
2020,9,7,2395,192
2020,9,11,1279,142
2020,10,22,2827,215
2020,6,1,700,266
2020,7,4,1101,153
2020,7,31,1061,192
2020,8,15,3429,192
2020,5,10,563,174
2020,5,3,1499,192
2020,1,17,1021,60
2020,6,5,485,142
2020,5,2,49,226
2020,5,3,3480,174
2020,11,18,752,125
2020,7,31,881,233
2020,3,4,2514,67
2020,8,17,1451,162
2020,2,15,2538,63
2020,6,4,588,142
2020,3,29,2538,290
2020,8,18,789,192
2020,7,1,1548,142
2020,7,26,2486,88
2020,6,25,2486,264
2020,1,23,3025,134
2020,6,11,2618,311
2020,8,11,1878,142
2020,8,25,2713,142
2020,4,2,1020,142
2020,5,5,1530,60
2020,11,19,1619,215
2020,4,21,3274,260
2020,6,1,150,20
2020,6,8,2661,102
2020,9,13,2797,264
2020,6,26,1191,142
2020,7,9,1418,293
2020,9,7,2492,63
2020,5,21,771,266
2020,4,22,2546,174
2020,6,5,640,20
2020,9,7,881,266
2020,7,21,699,63
2020,12,14,1447,295
2020,3,20,716,260
2020,8,27,3326,142
2020,7,30,3155,279
2020,5,16,207,157
2020,4,14,233,215
2020,9,6,3025,20
2020,6,21,514,142
2020,6,17,1923,298
2020,10,10,185,60
2020,3,26,2937,102
2020,9,19,2510,20
2020,1,31,3567,260
2020,5,16,2417,157
2020,6,7,1637,233
2020,11,20,1732,142
2020,7,8,1447,134
2020,3,7,3568,125
2020,1,9,3364,215
2020,11,2,793,233
2020,5,18,1248,142
2020,6,12,868,279
2020,7,21,1869,63
2020,9,7,3421,215
2020,7,31,2321,266
2020,11,7,928,260
2020,5,18,2628,142
2020,9,19,3107,20
2020,10,7,930,54
2020,7,21,3260,142
2020,3,16,3465,233
2020,10,12,2059,142
2020,6,14,553,134
2020,11,28,3296,60
2020,7,13,2787,215
2020,10,22,428,19
2020,7,27,1395,2
2020,7,17,1309,63
2020,12,24,1900,215
2020,10,23,2666,125
2019,12,26,1130,260
2020,8,25,1418,264
2020,5,15,254,233
2020,8,15,752,168
2020,5,10,1061,174
2020,9,19,2901,20
2020,7,31,97,142
2020,8,11,2178,174
2020,9,12,2989,142
2020,6,9,2907,192
2020,9,30,2359,215
2020,5,10,648,174
2020,11,17,765,63
2020,2,14,2267,70
2020,12,20,885,311
2020,2,15,756,63
2020,5,21,1793,266
2020,4,30,3101,174
2020,2,1,3130,303
2020,6,12,3390,215
2020,1,15,3399,63
2020,10,3,100,31
2020,6,5,337,266
2020,10,27,3349,297
2020,5,6,2201,60
2020,9,8,2998,303
2020,5,6,771,63
2020,1,9,1423,125
2020,7,29,640,303
2020,7,18,531,296
2020,12,15,3260,130
2020,6,3,1534,266
2020,2,11,2822,268
2020,5,10,1870,174
2020,5,18,3261,266
2020,8,24,1520,192
2020,8,26,587,20
2020,7,4,2201,192
2020,5,19,1248,142
2020,11,5,2006,23
2020,2,15,2958,268
2020,2,17,836,102
2020,8,27,1233,274
2020,6,15,1205,142
2020,10,28,254,134
2020,10,30,906,192
2020,7,14,2514,207
2020,10,2,3550,279
2020,2,11,2913,260
2020,5,6,642,142
2020,9,12,2211,142
2020,3,15,2565,60
2020,7,13,688,70
2020,7,4,789,142
2020,6,14,3480,134
2020,7,1,185,215
2020,6,17,60,298
2020,2,16,1744,102
2020,7,8,1975,116
2020,3,28,531,63
2020,10,1,2590,20
2020,5,15,772,168
2020,9,2,487,20
2020,7,15,1520,192
2020,9,30,2140,134
2020,8,23,2187,20
2020,7,15,1299,202
2020,7,31,1735,312
2020,9,1,2195,297
2020,5,28,1150,20
2020,8,22,3457,116
2020,7,4,2619,153
2020,5,18,1396,192
2020,5,6,2409,174
2020,4,29,2996,233
2020,1,13,1900,192
2020,5,5,882,296
2020,11,20,2727,125
2020,9,11,1793,20
2020,6,1,1975,298
2020,3,2,1774,142
2020,7,1,3232,192
2020,11,20,658,293
2020,10,17,1301,20
2020,6,17,1291,279
2020,8,25,2334,142
2020,1,5,618,233
2020,1,20,2121,192
2020,7,29,3502,266
2020,9,18,3480,192
2020,8,27,1150,192
2020,12,1,1492,130
2020,3,24,793,125
2020,4,2,1020,174
2020,9,18,1808,298
2020,8,8,81,295
2020,9,12,1205,88
2020,7,31,2670,192
2020,9,24,3537,60
2020,6,2,1165,142
2020,5,16,2506,134
2020,10,15,1366,215
2020,7,15,1804,215
2020,4,3,553,67
2020,9,19,2635,142
2020,7,15,1548,60
2020,9,11,3283,116
2020,1,4,3101,260
2020,11,9,1058,301
2020,5,5,1364,293
2020,3,10,658,62
2020,11,26,1299,233
2020,6,10,1513,142
2020,2,14,882,293
2020,10,28,3002,266
2020,5,10,3193,215
2020,6,1,2066,142
2020,3,22,1592,31
2020,11,12,1728,142
2020,5,9,365,18
2020,8,4,2069,266
2020,1,6,2743,125
2020,9,21,2797,192
2020,5,10,1828,174
2020,8,18,2020,266
2020,7,29,1301,142
2020,7,30,2387,215
2020,7,12,774,125
2020,2,7,3210,303
2020,5,16,487,54
2020,5,23,1450,60
2020,8,20,493,266
2020,1,18,2867,233
2020,6,12,2538,142
2020,7,29,1777,63
2020,5,24,81,192
2020,4,23,1021,192
2020,7,30,733,20
2020,10,12,1995,142
2020,5,10,2220,215
2020,6,7,881,20
2020,8,31,300,301
2020,5,3,3350,125
2020,9,7,1172,297
2020,7,12,642,192
2020,10,23,1549,266
2020,10,30,246,67
2020,6,19,922,140
2020,1,30,1219,174
2020,8,15,1554,134
2020,2,11,604,293
2020,3,31,2830,174
2020,4,6,1492,31
2020,7,4,3500,142
2020,3,3,2901,130
2020,8,31,2289,264
2020,4,7,553,311
2020,7,24,330,20
2020,5,23,493,215
2020,8,25,191,20
2020,7,14,1045,142
2020,3,19,3270,116
2020,8,29,2713,60
2020,8,13,3272,142
2020,1,17,531,60
2020,2,16,3499,233
2020,7,29,1450,134
2020,5,10,590,215
2020,5,10,2937,60
2020,10,30,1982,274
2020,6,9,81,148
2020,6,6,3130,192
2020,2,23,1067,60
2020,7,28,2554,304
2020,7,2,2950,261
2020,7,25,3545,20
2020,12,14,2128,142
2020,2,16,707,102
2020,2,15,2661,233
2020,7,30,1534,168
2020,9,9,2405,215
2020,8,29,794,60
2020,4,13,237,192
2020,1,3,715,63
2020,12,21,3505,233
2020,2,3,114,309
2020,11,2,1950,192
2020,7,28,591,116
2020,3,23,2959,215
2020,7,30,1682,142
2020,5,11,3372,88
2020,6,15,2143,298
2020,9,3,3125,60
2020,9,10,1771,142
2020,9,16,427,260
2020,12,2,1101,192
2020,12,8,2409,263
2020,3,22,3179,215
2020,6,19,2601,88
2020,5,16,223,215
2020,6,23,2758,260
2020,8,23,1793,142
2020,1,26,2510,233
2020,4,4,316,260
2020,5,28,310,20
2020,2,29,3350,296
2020,8,23,3071,212
2020,7,14,2870,266
2020,7,2,2414,116
2020,6,3,1425,148
2020,8,9,1212,266
2020,4,12,2192,260
2020,8,21,106,264
2020,4,6,1070,142
2020,8,26,323,215
2020,6,23,3350,215
2020,9,19,1592,20
2020,8,21,234,264
2020,5,3,1150,116
2020,7,15,81,142
2020,9,16,2201,116
2020,5,18,3101,116
2020,1,4,1492,233
2020,1,4,1653,233
2020,7,13,1158,88
2020,10,2,2472,192
2020,6,29,1145,116
2020,10,3,434,192
2020,6,29,715,215
2020,10,25,2904,67
2020,12,9,2139,233
2020,3,1,2899,293
2020,5,18,668,215
2020,5,16,3193,293
2020,7,26,743,303
2020,8,1,2882,142
2020,5,23,1142,102
2020,7,29,277,142
2020,8,15,2743,192
2020,4,9,1983,130
2020,5,16,2514,293
2020,4,27,1458,192
2020,5,21,2253,52
2020,8,11,1121,168
2020,6,4,618,142
2020,8,12,2155,148
2020,9,4,930,88
2020,8,17,1093,162
2020,9,29,489,20
2020,4,17,504,18
2020,7,5,1073,260
2020,8,14,2289,60
2020,2,4,755,63
2020,10,13,1619,18
2020,7,21,1371,63
2020,3,10,2996,192
2020,3,27,3341,215
2020,8,18,2517,266
2020,2,6,1969,260
2020,8,28,2547,88
2020,9,13,1558,142
2020,1,15,3113,212
2020,5,6,185,63
2020,11,5,1777,142
2020,5,14,3579,63
2020,5,14,1283,311
2020,9,5,1878,142
2020,4,1,2302,174
2020,9,18,2672,298
2020,5,17,2506,116
2020,8,24,658,142
2020,1,5,2405,233
2020,4,21,2670,260
2020,6,30,1957,67
2020,8,27,2345,274
2020,10,24,2622,60
2020,9,27,952,134
2020,11,28,2665,50
2020,5,9,2713,88
2020,1,15,1378,268
2020,9,20,1305,63
2020,10,23,2253,62
2020,8,17,3113,260
2020,8,28,2409,309
2020,7,9,562,20
2020,5,10,1172,142
2020,11,21,60,134
2020,8,1,2624,266
2020,8,21,1150,60
2020,5,20,2140,67
2020,6,22,730,142
2020,9,7,2299,142
2020,6,3,1301,192
2020,9,7,590,60
2020,6,4,147,266
2020,2,4,1747,70
2020,12,10,1777,266
2020,3,5,3480,293
2020,1,25,3424,174
2020,9,7,1342,304
2020,7,15,798,215
2020,6,20,1744,142
2020,7,28,523,60
2020,5,20,988,191
2020,1,13,1957,215
2020,7,13,1513,60
2020,4,19,1548,309
2020,8,21,2606,142
2019,12,30,2140,217
2020,8,8,1923,233
2020,4,22,100,174
2020,7,22,2120,233
2020,6,1,2334,301
2020,8,8,3111,215
2020,6,17,237,298
2020,5,5,2412,116
2020,11,19,147,260
2020,7,27,3236,142
2020,1,31,493,260
2020,8,5,512,63
2020,5,6,579,142
2020,5,9,1150,142
2020,8,7,3332,266
2020,6,23,3113,260
2020,8,24,707,142
2020,8,18,2828,142
2020,5,26,1093,134
2020,5,18,332,130
2020,11,29,147,192
2020,6,19,1364,134
2020,9,19,2538,130
2020,4,2,3500,142
2020,6,25,1957,226
2020,7,11,2153,99
2020,6,18,984,311
2020,11,18,731,266
2020,10,25,1793,298
2020,5,6,888,174
2020,6,17,2140,60
2020,8,16,3016,116
2020,4,17,3350,212
2020,8,28,106,200
2020,5,18,2619,142
2020,1,15,3372,63
2020,7,24,3350,20
2020,6,8,1098,125
2020,8,10,310,142
2020,5,4,1573,260
2020,10,28,3350,233
2020,9,18,2191,20
2020,8,21,972,162
2020,8,11,844,266
2020,5,10,927,174
2020,4,28,1736,174
2020,1,23,588,293
2020,8,30,408,67
2020,9,8,1189,215
2020,10,18,3350,215
2020,2,26,1777,130
2020,4,13,1530,174
2020,3,24,2937,63
2020,6,3,2538,192
2020,6,25,207,226
2020,10,23,2789,260
2020,8,23,2195,266
2020,1,11,738,125
2020,5,6,1070,63
2020,10,28,3259,303
2020,5,25,2886,142
2020,2,6,1423,260
2020,4,4,1202,192
2020,6,4,2743,142
2020,5,13,2125,88
2020,1,31,1098,260
2020,8,28,332,260
2020,1,8,318,311
2020,8,8,51,63
2020,3,7,1447,125
2020,6,6,1950,192
2020,5,5,266,174
2020,5,26,1392,134
2020,12,22,294,268
2020,8,10,3310,47
2020,9,11,2162,192
2020,10,30,651,142
2020,6,19,923,134
2020,5,15,2907,233
2020,5,23,1859,60
2020,11,3,2178,301
2020,6,11,2121,192
2020,3,25,2125,260
2020,7,21,1690,266
2020,5,11,1923,102
2020,6,1,3542,266
2020,8,27,1995,215
2020,12,13,2069,142
2020,7,22,3216,116
2020,11,20,1238,67
2020,5,18,1534,60
2020,6,1,1030,266
2020,2,12,1273,226
2020,5,13,1450,67
2020,12,25,2510,130
2020,4,15,1130,102
2020,6,5,2513,102
2020,10,27,1378,125
2020,8,15,1007,142
2020,9,25,330,260
2020,7,28,1825,260
2020,5,10,364,134
2020,8,24,3023,142
2020,5,10,1726,260
2020,10,4,2155,134
2020,8,31,2503,142
2020,8,21,2922,60
2020,8,8,2062,142
2020,9,7,1058,60
2020,5,17,337,142
2020,4,1,1389,116
2020,10,2,523,279
2020,4,13,1249,157
2020,11,3,2334,142
2020,9,18,2195,192
2020,9,6,1205,142
2020,5,29,497,142
2020,8,20,1116,20
2020,6,3,319,102
2020,6,1,3399,142
2020,7,14,2517,20
2020,1,20,1534,192
2020,7,5,2174,142
2020,5,6,1301,116
2020,10,24,1067,192
2020,7,30,2635,142
2020,4,15,2954,293
2020,2,11,1070,260
2020,8,12,1957,148
2020,8,23,857,63
2020,7,5,765,233
2020,7,15,1301,192
2020,8,30,1952,142
2020,8,4,3550,142
2020,9,3,1305,233
2020,10,11,2852,20
2020,9,10,2508,116
2020,3,5,586,116
2020,8,8,2913,233
2020,12,19,930,125
2020,8,25,1393,116
2020,6,18,1396,311
2020,5,10,798,63
2020,7,18,1221,215
2020,12,22,1283,260
2020,7,24,2615,20
2020,3,30,127,174
2020,7,27,261,69
2020,3,16,739,309
2020,7,28,2786,60
2020,6,8,3010,228
2020,3,10,1253,215
2020,2,11,1538,215
2020,4,27,1915,233
2020,9,19,3068,266
2020,9,9,1636,23
2020,8,15,1202,226
2020,11,25,1305,116
2020,6,1,2773,142
2020,6,20,147,142
2020,5,28,2289,70
2020,5,26,2417,134
2020,5,11,609,116
2020,7,11,715,215
2020,6,3,729,60
2020,9,21,2950,192
2020,2,11,1301,268
2020,8,2,2852,215
2020,11,15,591,60
2020,5,23,1686,103
2020,7,12,1378,88
2020,7,5,1692,157
2020,7,25,3121,266
2020,9,27,1018,215
2020,9,9,2890,266
2020,7,15,1691,215
2020,5,18,3130,88
2020,6,25,512,266
2020,7,30,2891,88
2020,7,28,3116,279
2020,3,6,2786,142
2020,7,27,3194,303
2020,9,12,1975,279
2020,9,20,2867,279
2020,11,22,3399,301
2020,8,11,3323,142
2020,6,4,584,215
2020,5,18,578,116
2020,8,21,3130,70
2020,5,9,1418,125
2020,8,1,3449,260
2020,7,15,2990,144
2020,7,23,1141,125
2020,9,21,511,215
2020,12,21,3344,130
2020,7,15,1606,168
2020,11,15,548,60
2020,3,12,1052,212
2020,3,12,88,67
2020,5,18,636,142
2020,4,13,1058,67
2020,1,4,1482,260
2020,8,21,640,142
2020,6,6,1886,20
2020,5,10,3500,174
2020,2,16,1142,102
2020,6,1,3567,192
2020,1,5,1233,192
2020,11,29,1131,192
2020,6,1,234,20
2020,8,7,1423,263
2020,12,22,2852,20
2020,8,24,1492,266
2020,12,7,481,125
2020,9,6,1625,20
2020,10,20,1536,116
2020,10,18,1520,261
2020,11,19,1223,261
2020,12,12,967,142
2020,1,18,752,260
2020,12,10,642,266
2020,7,26,8,264
2020,9,26,2005,142
2020,11,24,2279,142
2020,8,28,1898,309
2020,9,11,3542,263
2020,7,29,2020,303
2020,6,11,2554,142
2020,9,6,640,290
2020,3,27,1549,192
2020,5,3,1255,116
2020,4,4,2665,192
2020,9,7,992,142
2020,4,28,755,116
2020,7,2,310,298
2020,12,17,579,125
2020,7,21,3497,266
2020,8,25,115,116
2020,3,26,2852,174
2020,8,23,487,168
2020,5,16,124,142
2020,1,16,469,174
2020,5,1,1073,67
2020,7,13,1625,116
2020,7,13,485,215
2020,8,25,147,168
2020,8,15,428,142
2020,7,30,3113,226
2020,9,4,3205,233
2020,5,22,365,23
2020,6,8,1342,116
2020,12,20,3399,192
2020,12,8,554,142
2020,10,26,319,192
2020,9,20,1244,157
2020,9,1,1744,60
2020,6,15,1222,192
2020,11,6,45,23
2020,1,15,699,63
2020,1,23,1144,226
2020,9,8,431,162
2020,10,5,3408,20
2020,7,28,758,116
2020,1,19,2486,260
2020,4,12,1202,142
2020,6,9,2998,284
2020,12,4,1396,191
2020,2,15,3101,63
2020,7,25,76,142
2020,6,28,1861,116
2020,5,15,577,142
2020,6,3,3251,192
2020,4,1,2510,63
2020,9,5,1601,192
2020,6,23,3237,215
2020,10,1,1878,88
2020,3,26,2152,31
2020,7,22,597,215
2020,6,2,2110,116
2020,6,25,3530,261
2020,9,13,254,279
2020,7,29,3053,142
2020,1,24,3137,116
2020,5,14,3407,192
2020,8,17,1969,88
2020,12,8,2195,23
2020,8,24,428,142
2020,7,22,2904,67
2020,3,17,733,261
2020,7,1,618,266
2020,12,24,2775,215
2020,5,6,1153,261
2020,3,23,1447,215
2020,7,2,651,261
2020,3,24,2412,63
2020,7,29,1423,174
2020,2,15,1142,233
2020,7,26,2188,192
2020,6,24,698,142
2020,10,27,1744,142
2020,4,12,3296,200
2020,11,4,1073,67
2020,10,24,1058,142
2020,3,22,1928,233
2020,6,2,895,266
2020,1,23,1138,293
2020,6,14,1073,142
2020,4,12,1957,67
2020,12,7,1249,311
2020,8,24,3424,304
2020,7,14,3296,192
2020,7,23,3550,142
2020,9,11,1098,303
2020,6,20,2789,266
2020,7,16,237,215
2020,5,24,3497,192
2020,8,21,3178,70
2020,5,10,1425,125
2020,8,9,2726,142
2020,10,2,1641,63
2020,7,25,2305,303
2020,7,26,587,303
2020,11,20,3130,192
2020,4,18,1736,63
2020,9,10,2982,20
2020,6,7,795,20
2020,9,7,2155,142
2020,8,23,487,20
2020,2,14,1744,192
2020,8,4,1253,63
2020,9,13,813,192
2020,1,15,2538,174
2020,10,15,822,192
2020,11,1,2255,102
2020,9,13,2916,261
2020,10,29,53,67
2020,10,24,1249,202
2020,12,6,234,162
2020,2,14,2593,207
2020,2,11,1828,260
2020,10,18,1142,261
2020,7,13,2408,233
2020,8,26,1302,142
2020,6,1,2289,63
2020,5,6,2982,303
2020,4,13,928,260
2020,8,3,1205,60
2020,4,29,333,192
2020,7,30,2344,215
2020,3,28,1569,215
2020,5,21,2178,266
2020,12,8,2724,88
2020,8,22,2013,142
2020,9,11,928,266
2020,4,23,1606,309
2020,5,31,2726,215
2020,6,23,1953,142
2020,8,22,2138,88
2020,9,9,2253,142
2020,4,17,3013,260
2020,10,25,2510,103
2020,3,21,730,52
2020,11,27,794,233
2020,3,6,2665,142
2020,8,1,2443,266
2020,12,24,479,142
2020,3,16,1534,192
2020,12,22,642,116
2020,4,30,1364,174
2020,8,17,1736,102
2020,5,17,642,142
2020,7,16,1357,63
2020,7,28,749,260
2020,7,6,2255,192
2020,5,21,3037,215
2020,6,1,127,20
2020,12,8,3111,266
2020,6,25,1534,266
2020,2,3,1378,311
2020,7,15,3046,303
2020,8,14,1253,274
2020,9,12,1859,88
2020,7,1,752,142
2020,6,1,3101,298
2020,9,20,1249,103
2020,9,10,2259,116
2020,4,2,2538,116
2020,1,14,1777,260
2020,2,1,988,260
2020,11,19,818,192
2020,7,14,1227,215
2020,2,1,2069,174
2020,12,8,1717,215
2020,5,17,547,88
2020,6,1,2661,102
2020,6,1,1530,260
2020,2,18,1045,174
2020,10,8,2178,102
2020,8,16,2177,20
2020,3,4,698,67
2020,6,12,1308,142
2020,8,27,928,116
2020,6,17,653,142
2020,5,13,1130,260
2020,9,19,2191,260
2020,8,9,2495,260
2020,8,29,3097,60
2020,9,10,2625,70
2020,5,14,1793,67
2020,5,5,1558,60
2020,7,9,1561,50
2020,3,27,3097,260
2020,8,11,1098,142
2020,9,3,1463,274
2020,5,31,276,142
2020,12,18,12,67
2020,1,4,823,233
2020,5,13,866,311
2020,5,20,1249,67
2020,9,5,2554,130
2020,7,29,1492,116
2020,6,5,108,142
2020,9,9,185,303
2020,5,23,2255,103
2020,7,13,2020,279
2020,4,2,3116,142
2020,8,5,3501,102
2020,5,23,548,142
2020,7,5,103,142
2020,1,14,485,260
2020,7,28,1239,142
2020,7,11,1205,125
2020,4,28,1826,116
2020,9,19,106,260
2020,11,2,3563,233
2020,6,4,1900,260
2020,8,16,699,142
2020,9,11,2554,303
2020,6,25,51,266
2020,8,15,2069,192
2020,11,26,1480,266
2020,5,10,2944,260
2020,5,6,975,116
2020,12,6,1513,192
2020,7,22,2409,215
2020,6,6,311,192
2020,9,19,1254,142
2020,7,17,1130,260
2020,6,1,1463,142
2020,1,15,2670,212
2020,9,20,2635,20
2020,10,15,1653,192
2020,8,25,529,215
2020,8,15,1975,266
2020,5,23,3545,215
2020,8,9,2111,63
2020,5,3,3323,116
2020,8,31,1374,142
2020,12,14,1535,297
2020,5,18,2816,116
2020,6,4,2982,260
2020,8,30,2461,298
2020,3,9,505,157
2020,5,10,795,192
2020,8,26,207,63
2020,7,29,405,142
2020,3,13,2125,293
2020,5,17,3016,116
2020,8,4,1101,116
2020,6,18,2120,233
2020,3,16,2152,309
2020,2,7,1400,260
2020,12,21,1158,233
2020,5,11,3197,174
2020,3,5,1658,293
2020,7,23,2726,192
2020,7,7,2334,303
2020,7,13,794,266
2020,7,14,1015,168
2020,11,7,3105,215
2020,12,3,365,116
2020,3,13,3097,293
2020,8,27,2635,116
2020,7,1,904,215
2020,8,26,8,116
2020,7,3,3058,63
2020,5,3,794,116
2020,1,8,2152,142
2020,7,29,913,142
2020,5,13,2829,309
2020,4,29,3292,261
2020,8,9,739,142
2020,6,23,1408,67
2020,3,4,3155,60
2020,5,31,1548,142
2020,5,10,3155,192
2020,5,20,191,67
2020,8,27,106,192
2020,8,24,3251,233
2020,6,15,389,142
2020,9,1,1458,116
2020,1,24,2019,303
2020,1,20,1301,192
2020,9,19,984,88
2020,5,16,2708,302
2020,12,25,2069,130
2020,8,16,2260,20
2020,10,13,2235,211
2020,6,7,1950,142
2020,5,5,3023,63
2020,2,19,685,62
2020,9,19,2867,130
2020,7,8,428,134
2020,7,26,1672,301
2020,4,20,1982,130
2020,7,31,3545,142
2020,7,25,1140,20
2020,5,8,514,174
2020,4,30,1434,260
2020,10,28,2284,266
2020,11,19,878,142
2020,9,2,2289,20
2020,8,21,722,260
2020,9,11,2822,266
2020,1,25,3194,174
2020,5,16,1549,192
2019,12,30,331,18
2020,6,14,185,268
2020,7,15,487,202
2020,1,19,1923,18
2020,7,28,1176,142
2020,11,26,2419,142
2020,7,13,1548,215
2020,10,26,55,215
2020,6,21,642,142
2020,5,2,1805,293
2020,7,26,1233,88
2020,11,9,2345,23
2020,4,28,752,174
2020,7,7,2828,60
2020,5,26,2048,116
2020,10,7,3023,298
2020,8,8,1957,295
2020,5,24,1530,192
2020,8,22,3399,279
2020,1,21,3194,215
2020,5,6,3050,303
2020,11,3,2785,301
2020,12,19,1950,192
2020,6,7,2289,192
2019,12,31,1355,153
2020,7,30,3055,266
2020,9,9,1559,162
2020,7,17,1041,20
2020,9,26,909,60
2020,8,18,752,142
2020,9,7,2538,304
2020,4,29,2665,116
2020,1,8,1265,215
2020,7,15,1828,168
2019,12,31,2546,153
2020,4,13,1946,303
2020,10,16,328,297
2020,10,21,1141,116
2020,3,23,1458,215
2020,7,28,1573,260
2020,7,29,2879,313
2020,11,19,3260,261
2020,7,30,2005,298
2020,11,18,1797,23
2020,5,16,663,142
2020,6,2,1879,142
2020,6,28,2540,142
2020,5,18,485,293
2020,2,17,2996,60
2020,1,10,1098,174
2020,6,6,3364,212
2020,6,26,97,124
2020,8,5,246,264
2020,10,3,794,192
2020,3,27,2405,63
2020,7,23,504,266
2020,2,1,3023,303
2020,7,16,2568,142
2020,9,4,1625,88
2020,7,1,3200,60
2020,12,5,1111,266
2020,11,18,1400,192
2020,8,26,930,142
2020,8,30,812,142
2020,9,20,2493,192
2020,5,6,1378,215
2020,8,25,1301,142
2020,8,23,243,116
2020,4,15,310,296
2020,1,8,986,207
2020,10,13,1451,67
2020,7,30,823,142
2020,9,9,2726,142
2020,8,5,2579,264
2020,7,13,2622,279
2020,8,9,2758,266
2020,8,1,863,142
2020,8,31,3291,20
2020,3,19,2486,134
2020,7,4,3550,293
2020,9,9,1058,23
2020,5,17,3375,192
2020,8,15,1554,142
2020,4,13,698,67
2020,8,18,3447,23
2020,9,10,80,263
2020,9,20,1879,279
2020,7,19,628,266
2020,6,10,887,298
2020,7,14,724,212
2020,6,12,2131,279
2020,10,3,1045,31
2020,8,4,2479,233
2020,11,12,2797,142
2020,4,28,1549,116
2020,7,28,1690,142
2020,5,10,882,70
2020,3,15,1418,174
2020,9,12,3479,260
2020,8,24,3116,116
2020,8,14,618,142
2020,5,24,1982,192
2020,1,1,2166,226
2020,8,5,1558,134
2020,8,27,1662,192
2020,7,23,1975,142
2020,4,27,3101,134
2020,9,9,2394,260
2020,7,13,1915,70
2020,12,25,3429,233
2020,10,14,2020,142
2020,7,17,2959,103
2019,12,26,1212,168
2020,5,6,669,192
2020,2,12,335,67
2020,7,30,2726,192
2020,6,25,640,60
2020,5,6,2063,192
2020,2,29,2574,192
2020,7,14,2734,266
2020,8,23,2068,116
2020,5,31,1549,266
2020,10,9,1423,116
2020,10,24,2907,60
2020,5,15,1859,67
2020,3,22,577,309
2020,7,31,1423,142
2020,2,3,640,311
2020,3,3,2622,174
2020,6,13,2980,192
2020,5,7,1991,264
2020,1,27,3568,174
2020,8,15,3350,266
2020,6,19,2726,140
2020,10,23,3366,192
2020,5,10,1283,157
2020,6,6,328,60
2020,7,13,1098,142
2020,8,24,2455,192
2020,5,13,2121,70
2020,7,2,1829,260
2020,7,15,3500,192
2020,6,19,2387,140
2020,6,4,1111,260
2020,9,5,1690,20
2020,5,18,2982,88
2020,7,26,1601,174
2020,11,1,2987,192
2020,8,28,2759,200
2020,8,28,2120,134
2020,5,5,1625,63
2020,9,5,2191,215
2020,1,13,1378,192
2020,9,21,3564,63
2020,7,15,2486,125
2020,12,20,2562,134
2020,5,5,909,215
2020,8,16,2779,116
2020,8,25,909,116
2020,7,1,1640,274
2020,12,2,823,88
2020,6,6,2998,174
2020,5,18,113,116
2020,9,23,1774,266
2020,7,15,2434,266
2020,8,7,261,102
2020,5,5,59,142
2020,7,16,651,233
2020,10,6,707,192
2020,5,6,966,60
2020,5,13,590,102
2020,11,18,2502,23
2020,9,21,1368,215
2020,6,26,3297,266
2020,7,29,1423,60
2020,8,12,3193,266
2020,10,26,1969,134
2020,10,12,1771,233
2020,7,1,1774,142
2020,2,29,1342,296
2020,11,19,2904,215
2020,4,19,1964,192
2020,10,22,1078,215
2020,12,16,2754,102
2020,7,13,107,62
2020,8,8,55,142
2020,3,2,795,142
2020,9,18,1829,142
2020,8,7,888,263
2020,12,3,209,212
2020,10,13,484,67
2020,7,13,1793,70
2020,11,26,1364,260
2020,6,2,3372,192
2020,4,9,909,142
2020,7,4,3201,142
2020,10,7,310,54
2020,1,23,2493,134
2020,1,17,1287,303
2020,1,23,2286,31
2020,6,22,1257,215
2020,2,24,2207,125
2020,7,22,1255,142
2020,6,1,772,20
2020,8,24,1549,192
2020,8,17,1601,88
2020,8,28,310,309
2020,7,4,3155,192
2020,8,7,2959,116
2020,10,20,246,226
2020,9,19,836,20
2020,5,10,1404,102
2020,4,11,2982,233
2020,1,6,332,125
2020,8,18,1900,23
2020,8,15,1736,192
2020,5,30,1342,142
2020,7,28,1859,304
2020,2,20,1208,88
2020,3,28,2427,215
2020,4,14,2554,215
2019,12,26,2023,168
2020,12,3,1793,116
2019,12,29,3519,130
2020,9,14,765,60
2020,4,19,220,142
2020,8,17,2733,309
2020,4,2,2913,142
2020,9,12,1777,142
2020,2,16,2786,70
2020,2,23,2954,60
2020,7,4,587,192
2020,7,29,2635,20
2020,8,24,2625,116
2019,12,26,114,260
2020,9,10,2829,142
2020,8,16,2455,116
2020,7,14,2191,207
2020,6,1,1531,20
2020,5,26,42,116
2020,8,24,337,192
2020,3,22,1808,174
2020,5,10,638,174
2020,3,26,2121,293
2020,12,10,2067,67
2020,9,1,2387,142
2020,6,2,1592,142
2020,7,6,3338,215
2020,6,5,1690,20
2020,6,4,2998,215
2020,5,5,2490,116
2020,8,25,3223,88
2020,8,16,3291,63
2020,11,19,1957,261
2020,7,16,3093,162
2020,8,25,2963,168
2020,5,6,2467,174
2020,4,12,524,226
2020,9,7,3545,301
2020,11,27,345,233
2020,7,21,1238,63
2020,12,8,2302,23
2020,10,22,265,103
2020,8,16,2048,260
2020,5,16,479,125
2020,11,9,554,263
2020,6,2,2490,130
2020,9,19,1781,260
2020,6,9,147,192
2020,5,16,1305,157
2020,8,28,3562,134
2020,10,6,2867,142
2020,8,23,2812,142
2020,5,6,1569,293
2020,9,2,2405,302
2020,3,27,1021,207
2020,10,22,738,192
2020,8,25,3023,67
2020,6,25,3101,142
2020,5,1,170,293
2020,8,11,3372,168
2020,9,26,2622,60
2020,5,6,909,207
2020,1,18,738,233
2020,9,6,1672,290
2020,4,17,2713,233
2020,2,1,3397,142
2020,6,6,2178,212
2020,8,18,310,215
2020,5,8,3403,215
2020,9,3,1636,293
2020,1,19,2574,293
2020,5,15,1441,192
2020,9,11,1490,142
2020,8,17,1513,20
2020,6,7,738,192
2020,1,12,1378,233
2020,6,5,719,192
2020,7,30,522,116
2020,7,8,2669,215
2020,6,28,2470,116
2020,7,28,1975,116
2020,6,25,1957,261
2020,5,10,3207,260
2020,7,22,1774,142
2020,7,15,3449,142
2020,6,9,127,192
2020,12,7,1032,192
2020,8,12,3166,142
2020,1,5,1940,200
2020,10,16,3399,20
2020,5,10,106,116
2020,8,2,1771,142
2020,10,7,975,125
2020,8,7,1058,266
2020,9,13,2121,20
2020,11,19,217,142
2020,9,14,731,226
2020,6,20,3044,63
2020,6,2,2253,116
2020,7,31,738,233
2020,7,14,562,48
2020,3,28,3023,63
2020,3,28,1950,63
2020,5,17,3350,192
2020,1,30,2822,174
2020,5,5,1368,60
2020,9,7,1672,266
2020,10,15,1065,215
2020,5,23,888,102
2020,12,8,1417,215
2020,5,24,3038,162
2020,6,7,2899,130
2020,7,16,1895,266
2020,12,21,3557,142
2020,8,2,2289,130
2020,4,2,3130,142
2020,10,26,60,134
2020,5,5,2121,174
2020,7,18,2253,296
2020,6,9,1058,192
2020,9,27,3424,266
2020,7,26,276,79
2020,10,1,3354,116
2020,6,7,984,192
2020,4,13,2624,192
2020,11,11,2562,142
2020,5,10,590,116
2020,6,27,700,297
2020,1,8,2954,233
2020,6,5,2018,116
2020,8,17,3372,20
2020,6,7,431,260
2020,6,14,731,268
2020,3,26,755,192
2020,11,11,1839,298
2020,10,5,254,268
2020,6,8,3130,102
2020,5,15,1440,215
2020,1,20,2729,192
2020,5,14,1956,67
2020,5,16,2246,162
2020,1,11,1534,293
2020,9,4,1927,192
2020,7,29,1330,63
2020,8,29,707,233
2020,7,5,115,142
2020,5,6,2051,60
2020,6,10,3449,298
2020,11,12,2729,192
2020,8,19,2253,268
2020,9,7,49,142
2020,8,15,127,266
2020,12,21,613,192
2020,7,14,2453,130
2020,10,7,52,192
2020,6,7,1133,192
2020,5,5,1793,293
2020,7,31,1170,116
2020,4,5,330,260
2020,8,26,3104,50
2020,4,1,922,174
2020,5,21,1991,298
2020,5,10,987,293
2020,4,17,1513,192
2020,7,28,456,260
2020,8,8,1805,192
2020,9,12,503,142
2020,10,25,963,103
2020,7,9,1034,293
2020,11,14,2813,215
2020,8,23,1368,116
2020,9,18,1816,192
2020,2,13,1363,215
2020,5,10,2289,60
2020,3,16,60,309
2020,6,4,3546,215
2020,6,3,2670,102
2020,11,2,100,215
2020,7,9,2727,142
2020,10,23,1149,116
2020,3,27,888,260
2020,8,22,1342,279
2020,7,25,2665,60
2020,1,24,1658,233
2020,7,2,1058,298
2020,3,13,1522,174
2020,5,16,2554,260
2020,6,4,3023,142
2020,7,18,2088,142
2020,7,28,504,20
2020,4,20,237,130
2020,7,1,1793,142
2020,5,6,1772,215
2020,5,6,1502,18
2020,7,21,3179,142
2020,8,18,1451,67
2020,7,15,3296,142
2020,7,26,1492,20
2020,5,6,3283,174
2020,11,17,2302,215
2020,5,31,3155,215
2020,12,5,2901,266
2020,2,17,3012,192
2020,5,11,1021,174
2020,5,31,2899,192
2020,5,18,2841,293
2020,6,14,1305,142
2020,6,7,3462,192
2020,5,18,1492,192
2020,12,23,1298,303
2020,5,10,2954,63
2020,8,1,2310,260
2020,8,16,2982,215
2020,8,2,2461,266
2020,1,23,1861,31
2020,6,3,698,116
2020,5,23,3025,215
2020,8,7,857,303
2020,7,31,2259,142
2020,2,14,14,215
2020,10,17,881,20
2020,8,10,1558,47
2020,9,6,60,290
2020,7,30,3183,192
2020,3,27,1168,212
2020,4,27,2409,134
2020,8,24,2120,303
2020,10,2,468,67
2020,5,17,1396,142
2020,10,6,1490,142
2020,9,20,3350,20
2020,2,16,1481,168
2019,12,26,1451,212
2020,9,2,352,192
2020,8,23,1070,266
2020,5,5,2178,174
2020,5,23,1233,296
2020,5,15,3320,168
2020,3,20,912,260
2020,8,16,755,215
2020,8,23,1492,88
2020,7,5,1735,142
2020,7,18,319,260
2020,2,4,639,309
2020,4,3,2879,309
2020,7,27,1451,303
2020,9,5,2635,142
2020,8,23,1736,260
2020,7,11,344,266
2020,12,6,1219,192
2020,6,3,925,293
2020,5,31,3101,202
2020,9,19,332,303
2020,9,19,699,20
2020,3,9,3260,192
2020,6,25,928,266
2020,6,11,812,304
2020,8,27,2670,69
2020,8,26,2032,192
2020,2,20,478,142
2020,3,26,986,142
2020,7,13,1149,70
2020,7,5,3172,192
2020,11,26,2486,116
2020,5,31,642,202
2020,6,5,651,54
2020,5,31,2998,23
2020,8,3,1003,88
2020,4,16,1808,125
2020,5,16,2405,226
2020,5,16,700,142
2020,10,24,1690,192
2020,5,16,3112,192
2020,11,14,2094,116
2020,6,5,470,142
2020,9,17,1145,215
2020,6,13,1152,260
2020,4,13,2622,215
2020,2,4,928,63
2020,9,1,752,303
2020,10,15,2787,60
2020,8,25,106,88
2020,11,29,2178,261
2020,4,12,2510,102
2020,11,8,2974,233
2020,5,17,3250,88
2020,4,12,2974,233
2020,5,31,1130,116
2020,6,23,857,260
2020,3,23,2519,67
2020,9,10,281,116
2020,6,23,55,215
2020,7,26,1970,60
2019,12,28,651,18
2020,7,28,1167,20
2020,2,14,1952,293
2020,6,26,1492,124
2020,6,5,2490,266
2020,8,15,2302,192
2020,9,1,1130,266
2020,6,1,1952,303
2020,8,20,115,63
2020,7,8,3116,116
2020,5,9,1957,102
2020,2,10,1492,215
2020,2,14,2987,63
2020,6,25,3232,125
2020,8,15,2554,192
2020,8,2,1150,130
2020,5,10,658,63
2020,11,11,141,298
2020,8,22,2907,264
2020,9,5,2493,142
2020,9,10,618,70
2020,5,31,653,20
2020,8,23,1982,266
2020,9,27,1396,88
2020,9,19,2152,142
2020,4,16,2982,125
2020,4,13,904,88
2020,4,29,1982,116
2020,9,19,3399,260
2020,9,5,1744,228
2020,3,10,2758,192
2020,8,24,2305,298
2020,5,6,3135,260
2020,9,30,2804,88
2020,10,18,2816,67
2020,5,11,696,168
2020,12,8,2934,134
2020,5,5,3424,168
2020,8,15,3545,226
2020,4,27,2538,215
2020,10,25,2514,200
2020,12,8,2461,142
2020,11,3,2822,142
2020,6,26,210,142
2020,6,9,2320,284
2020,9,7,1502,63
2020,12,3,179,212
2020,8,1,752,260
2020,3,11,318,293
2020,10,7,2538,298
2020,10,20,1982,261
2020,12,17,2069,192
2019,12,31,812,153
2020,9,11,1826,266
2020,7,25,2447,309
2020,10,23,2479,116
2020,8,12,1447,148
2020,8,24,1454,298
2020,6,12,2066,215
2020,12,23,1482,215
2020,1,10,909,174
2020,2,26,752,130
2020,5,10,3497,63
2020,9,6,528,142
2020,8,15,1980,125
2020,6,25,617,60
2020,6,13,2702,142
2020,4,29,3116,192
2020,8,28,2814,298
2020,5,15,487,67
2020,5,10,859,63
2020,7,10,2982,116
2020,8,8,2954,142
2020,7,25,3354,215
2020,8,7,1898,266
2020,9,7,2954,60
2020,8,27,54,69
2020,9,6,3179,142
2020,7,11,2665,99
2020,8,21,738,142
2020,8,26,3309,142
2020,6,7,2533,67
2020,6,5,191,60
2020,12,8,1721,215
2020,3,8,2433,268
2020,8,5,2901,263
2020,9,10,2195,266
2020,8,18,1020,266
2020,8,1,2255,266
2020,8,23,1545,303
2020,8,21,1255,284
2020,5,9,2565,102
2020,3,19,469,226
2020,6,10,2465,260
2020,9,11,984,266
2020,8,8,3130,142
2020,3,23,1130,63
2020,8,11,2950,192
2020,1,15,967,260
2020,10,2,3159,67
2020,7,27,3165,309
2020,7,14,2716,293
2020,7,25,3118,125
2020,8,27,2057,192
2020,8,8,108,142
2020,5,16,2526,142
2020,11,9,3550,2
2020,9,1,738,266
2020,8,22,122,116
2020,7,24,1395,260
2020,5,5,2546,116
2020,9,19,2510,266
2020,12,17,1298,192
2020,11,26,3480,260
2020,10,10,2140,19
2020,9,23,3540,60
2020,7,31,3155,233
2020,7,31,1133,266
2020,12,6,2191,192
2020,4,23,276,192
2020,11,4,855,67
2020,8,25,365,67
2020,6,2,566,142
2020,1,16,265,63
2020,11,1,2207,192
2020,9,19,2155,260
2020,9,11,2005,63
2020,4,20,1423,130
2020,11,11,81,142
2020,11,17,1585,266
2020,1,23,888,134
2020,2,20,1253,174
2020,4,28,1395,192
2020,5,18,2959,266
2020,6,8,1186,192
2020,5,31,676,142
2020,10,14,60,142
2020,10,5,1451,228
2020,3,13,1279,103
2020,1,8,365,233
2020,7,15,1917,215
2020,8,15,953,116
2020,5,12,2361,192
2020,9,10,1292,142
2020,9,1,3399,142
2020,1,24,493,233
2020,6,12,536,192
2020,8,21,310,142
2020,4,13,81,67
2020,7,26,1067,301
2020,8,23,590,88
2020,6,1,2177,20
2020,8,24,1828,266
2020,9,20,1619,63
2020,10,25,556,20
2020,3,15,2240,60
2020,9,4,2461,261
2020,1,23,1717,226
2020,12,6,3408,192
2020,11,26,2635,215
2020,9,10,697,62
2020,3,26,1357,142
2020,8,4,2289,266
2020,7,17,3155,233
2020,12,14,1045,142
2020,1,11,2538,125
2020,1,23,2891,226
2020,8,30,818,20
2020,7,15,1638,116
2020,9,19,1396,303
2020,11,2,191,215
2020,3,26,1219,192
2020,7,14,738,192
2020,7,9,111,260
2020,11,5,2595,23
2020,6,4,2729,266
2020,8,1,2787,266
2020,8,23,755,116
2020,9,30,1255,134
2020,11,2,53,301
2020,8,22,1952,264
2020,8,24,2302,142
2020,6,25,1472,192
2020,6,12,2286,63
2020,6,8,2954,233
2020,11,10,348,116
2020,10,20,1744,261
2020,7,25,2901,60
2020,4,26,1825,303
2020,8,30,2472,298
2020,9,29,147,142
2020,3,5,2188,174
2020,9,9,444,20
2020,7,17,1859,215
2020,10,18,460,215
2020,5,6,3155,215
2020,9,7,3314,142
2020,11,16,260,60
2020,5,6,1552,63
2020,1,15,106,260
2020,8,24,2546,304
2020,7,30,2467,142
2020,5,10,1202,116
2020,5,10,33,311
2020,5,1,1219,233
2020,11,22,237,301
2020,8,17,752,260
2020,7,1,2130,116
2020,10,15,1477,233
2020,11,2,1777,192
2020,7,28,730,266
2020,9,9,2959,215
2020,3,12,1923,67
2020,6,1,2913,215
2020,4,11,2363,174
2020,9,11,2661,266
2020,7,17,3530,215
2020,6,5,2053,142
2020,7,1,1933,20
2020,4,2,984,142
2020,11,19,1142,266
2020,2,13,1172,215
2020,8,6,1450,116
2020,7,28,1679,301
2020,10,28,1828,233
2020,7,1,3568,142
2020,2,18,3568,174
2020,11,17,3257,23
2020,4,15,795,174
2020,3,30,1898,174
2020,2,3,3296,311
2020,5,3,2493,260
2020,5,21,739,142
2020,12,9,1378,298
2020,9,20,823,69
2020,9,16,1855,67
2020,4,13,1549,260
2020,4,3,621,261
2020,8,31,1826,20
2020,8,4,175,142
2020,1,26,1975,293
2020,5,30,1114,264
2020,8,7,988,116
2020,6,1,2954,20
2020,7,26,2490,20
2020,5,17,1818,142
2020,8,9,2467,192
2020,5,17,2493,142
2020,5,16,3055,192
2020,9,28,1382,215
2020,1,10,844,174
2020,6,27,3391,157
2020,6,1,641,293
2020,3,13,2546,293
2020,2,27,817,215
2020,12,3,1928,116
2020,10,5,882,268
2020,8,16,1957,116
2020,5,10,904,63
2020,10,10,254,233
2020,11,16,1070,192
2020,10,25,3354,284
2020,9,20,2152,20
2020,11,22,699,301
2020,3,26,3121,293
2020,1,2,2178,296
2020,5,10,1910,60
2020,8,18,1793,116
2020,7,16,3023,215
2020,7,2,2752,116
2020,4,22,81,233
2020,4,27,2409,215
2020,3,8,3303,215
2020,9,5,2378,228
2020,8,4,1058,233
2020,12,24,2179,215
2020,8,31,40,142
2020,7,28,493,266
2020,7,29,88,266
2020,4,19,3579,174
2020,9,7,1801,215
2020,8,16,855,116
2020,3,28,75,215
2020,2,13,1772,215
2020,5,7,2613,116
2020,7,25,3251,60
2020,5,6,731,142
2020,5,5,1627,215
2020,10,26,1181,134
2020,6,4,1772,142
2020,12,8,3490,69
2020,8,9,3130,23
2020,9,5,1378,215
2020,3,9,1849,192
2020,6,8,2665,125
2020,5,5,3054,125
2020,1,30,1624,268
2020,5,30,1009,192
2020,7,1,2155,116
2020,4,22,1619,303
2020,3,4,2507,293
2020,7,26,3046,260
2020,3,20,3222,233
2020,5,19,1211,293
2020,5,9,1644,62
2020,5,27,2019,116
2020,7,14,3113,202
2020,5,21,60,142
2020,12,13,1850,125
2020,6,7,2063,157
2020,10,3,1070,192
2020,3,22,1396,31
2020,4,29,2408,260
2020,6,6,252,60
2020,5,24,1204,162
2020,1,26,481,168
2020,7,14,2852,202
2020,3,26,3399,31
2020,6,11,2412,215
2020,3,6,1378,142
2020,5,21,1378,192
2020,3,7,1606,102
2020,12,3,3500,116
2020,6,12,3283,215
2020,7,26,1462,266
2020,8,21,2191,264
2020,10,22,2020,142
2020,8,15,60,20
2020,6,6,2996,142
2020,8,22,1969,88
2020,10,23,1744,116
2020,9,6,755,215
2020,8,23,1223,266
2020,8,25,3106,60
2020,6,3,722,60
2020,3,31,1408,290
2020,7,27,2952,192
2020,2,28,3116,63
2020,9,1,3323,60
2020,7,11,2803,215
2020,9,10,2195,116
2020,9,2,2668,142
2020,6,5,2625,266
2020,3,22,2726,296
2020,11,3,553,301
2020,9,6,668,290
2020,8,9,3025,192
2020,3,31,1808,116
2020,7,26,1900,303
2020,9,19,975,130
2020,6,12,203,116
2019,12,30,1774,174
2020,8,8,1288,260
2020,1,26,1793,116
2020,11,12,1020,268
2020,3,31,289,215
2020,9,8,1982,63
2020,6,24,1698,192
2020,7,26,3437,142
2020,5,7,2345,174
2020,5,7,189,260
2020,4,29,1625,260
2020,7,14,2155,48
2020,4,11,2050,296
2020,4,22,1793,174
2020,7,29,2852,260
2020,3,27,1101,303
2020,5,25,1775,142
2020,7,21,2635,142
2020,11,3,730,142
2020,6,5,2665,142
2020,5,10,2656,293
2020,7,29,882,142
2020,4,23,1549,192
2020,1,27,199,174
2020,8,17,771,304
2020,4,2,372,303
2020,5,21,1534,192
2020,7,11,1636,99
2020,9,4,1601,88
2020,8,14,967,142
2020,9,11,731,303
2020,5,31,1429,116
2020,5,3,1636,63
2020,3,27,1975,88
2020,8,1,685,266
2020,4,28,3567,260
2020,9,7,1133,31
2020,10,28,738,134
2020,10,21,1709,192
2020,8,23,2661,142
2020,12,8,1513,263
2020,1,4,1032,233
2020,6,12,185,63
2020,6,20,2822,142
2020,8,31,587,116
2020,1,19,2081,293
2020,8,6,3197,116
2020,7,26,618,301
2020,7,17,884,311
2020,7,29,2255,303
2020,6,7,3462,212
2020,6,8,1219,142
2020,7,13,318,60
2020,7,22,3424,215
2020,9,16,708,130
2020,8,26,668,20
2020,8,8,3179,260
2020,1,26,3531,260
2020,8,1,640,233
2020,5,6,566,192
2020,3,22,234,142
2020,8,30,31,20
2020,2,18,809,192
2020,3,26,1061,60
2020,9,12,857,303
2020,8,6,1900,63
2020,7,25,254,142
2020,11,18,330,192
2020,8,7,1422,99
2020,11,6,2102,226
2020,7,1,1505,60
2020,9,13,3323,192
2020,11,11,2317,298
2020,5,2,1613,293
2020,6,1,2191,142
2020,9,10,1859,20
2020,3,22,823,142
2020,12,3,1389,142
2020,4,30,1418,260
2020,9,18,651,142
2020,6,16,548,67
2020,2,13,1070,233
2020,5,24,1690,215
2020,8,27,1158,192
2020,7,31,1150,192
2020,4,29,668,192
2020,6,12,1898,67
2020,5,10,1966,303
2020,7,21,69,20
2020,8,14,587,274
2020,6,5,3550,63
2020,10,17,1150,130
2020,7,26,237,303
2020,3,10,1396,296
2020,11,26,3221,60
2020,6,7,1155,215
2020,6,12,2779,67
2020,5,5,2937,215
2020,2,27,2863,67
2020,3,10,618,192
2020,8,9,96,266
2020,7,25,1947,31
2020,7,10,3291,60
2020,9,7,1133,60
2020,8,23,1098,88
2020,12,12,3022,67
2020,1,20,2756,18
2020,10,30,2064,142
2020,2,28,2493,63
2020,9,12,2635,125
2020,7,29,469,116
2020,5,16,237,226
2020,10,15,2472,60
2020,10,17,984,116
2020,7,22,1774,67
2020,8,9,700,192
2020,1,6,1382,125
2020,3,27,676,63
2019,12,26,1144,168
2020,1,12,1041,60
2020,7,15,1802,103
2020,10,22,1529,212
2020,10,22,878,212
2020,5,21,2478,142
2020,9,22,2921,192
2020,5,12,384,103
2020,10,26,3500,134
2020,5,20,33,274
2020,11,15,2759,60
2020,12,12,3078,142
2020,2,9,493,215
2020,7,30,310,20
2020,11,5,3550,142
2020,9,7,2514,301
2020,4,12,3155,192
2020,10,20,2514,261
2020,1,9,493,192
2020,5,19,2387,142
2020,3,24,3545,233
2020,3,16,1975,192
2020,7,1,3550,116
2020,8,26,3437,192
2020,9,7,68,142
2020,1,26,791,60
2020,7,4,3567,293
2020,7,13,3387,142
2020,7,20,3387,116
2020,1,2,1636,192
2020,5,4,1765,290
2020,2,14,1368,142
2020,8,25,1898,266
2020,1,19,3097,18
2020,8,25,3449,142
2020,8,21,1601,264
2020,2,26,2822,174
2020,3,26,365,31
2020,7,15,536,215
2020,10,26,2996,134
2020,8,26,1672,264
2020,8,14,2614,233
2020,8,4,651,266
2020,8,22,1670,88
2020,4,26,2274,63
2020,7,14,1933,215
2020,11,17,888,212
2020,7,15,2345,142
2020,7,28,3500,20
2020,8,25,2408,142
2020,8,15,2435,20
2020,6,5,1613,260
2020,2,18,1982,226
2020,8,24,2565,116
2020,7,25,1378,215
2020,4,12,2565,142
2020,8,15,1672,266
2020,9,15,2667,304
2020,8,3,3039,69
2020,7,29,2041,233
2020,12,14,2195,142
2020,11,7,1150,260
2020,10,1,173,134
2020,11,22,185,142
2020,8,24,1879,116
2020,10,19,739,148
2020,9,4,2622,20
2020,3,11,1777,192
2020,12,1,2197,192
2020,7,14,2176,215
2020,5,10,2625,70
2020,12,15,3449,130
2020,2,1,823,142
2020,6,3,1450,116
2020,7,13,3020,266
2020,6,2,1024,192
2020,2,14,2896,226
2020,11,12,975,142
2020,5,10,365,70
2020,5,31,2901,215
2020,8,19,477,60
2020,10,25,2672,284
2020,6,17,124,142
2020,7,27,3378,192
2020,7,15,2188,215
2020,9,12,2901,125
2020,2,13,1213,233
2020,10,22,2140,19
2020,9,4,2121,266
2020,9,12,2378,279
2020,8,15,2625,116
2020,4,29,1826,309
2020,8,23,1067,266
2020,9,5,2893,296
2020,3,28,3064,293
2020,1,8,1549,233
2020,9,18,2819,192
2020,8,18,2867,20
2020,12,4,1654,88
2020,9,18,2286,142
2020,6,11,147,192
2020,9,13,365,279
2020,9,12,2514,125
2020,7,25,2786,260
2020,10,15,3226,70
2020,1,26,2057,226
2020,6,20,476,15
2020,7,31,3480,192
2020,5,11,2334,134
2020,7,25,1045,296
2020,3,7,1859,192
2020,3,11,2954,293
2020,8,15,1305,266
2020,7,26,680,142
2020,8,9,3480,142
2020,6,21,1188,60
2020,8,9,1686,215
2020,6,2,3444,303
2020,7,9,1601,293
2020,7,28,1950,142
2020,7,21,2305,142
2020,6,11,1653,215
2020,10,12,261,260
2020,8,1,823,233
2020,5,6,1058,125
2020,7,16,1772,142
2020,8,7,2713,215
2020,9,18,2155,192
2020,11,15,25,116
2020,8,25,456,162
2020,1,30,1635,174
2020,6,26,1378,124
2020,7,22,794,215
2020,8,5,2223,293
2020,5,3,1911,174
2020,8,11,1682,266
2020,2,2,611,303
2020,5,10,1460,260
2020,6,24,314,142
2020,10,2,3483,298
2020,7,14,3106,60
2020,6,21,1140,142
2020,1,26,152,174
2020,8,18,106,125
2020,7,5,1396,142
2020,3,12,3283,67
2020,7,15,2417,226
2020,7,24,134,266
2020,6,1,2717,266
2020,4,4,2020,260
2020,8,28,2741,88
2020,9,20,2449,142
2020,11,16,88,266
2020,12,14,3219,142
2020,1,12,930,67
2020,6,18,3350,311
2020,3,6,731,142
2020,4,10,1859,215
2020,7,24,794,20
2020,10,23,237,266
2020,4,19,2172,63
2020,11,18,1797,192
2020,8,29,1090,60
2020,6,16,2289,215
2020,5,6,318,303
2020,1,25,21,207
2020,8,25,2412,88
2020,2,24,3372,260
2020,9,4,1808,102
2020,6,28,1549,116
2020,7,28,2670,301
2020,5,3,1923,260
2020,6,25,668,142
2020,6,18,295,233
2020,5,10,2590,290
2020,5,11,1549,116
2020,9,19,2907,20
2020,11,15,3061,192
2020,1,8,3399,233
2020,4,12,2420,174
2020,2,11,1592,260
2020,9,29,2743,212
2020,5,1,2246,293
2020,8,7,2387,142
2020,7,23,3020,130
2020,7,29,1923,116
2020,4,12,1908,142
2020,9,1,2873,264
2020,5,4,3579,174
2020,9,12,527,134
2020,7,14,1382,192
2020,5,23,2066,215
2020,10,22,1542,142
2020,8,7,2378,215
2020,8,29,3197,215
2020,11,13,3183,88
2020,9,9,548,20
2020,8,25,946,103
2020,1,4,724,233
2020,7,13,2891,266
2020,7,14,2643,48
2020,6,10,2867,298
2020,6,3,1418,63
2020,5,6,2806,207
2020,5,9,1131,102
2020,6,1,3155,102
2020,9,27,3540,266
2020,5,21,855,52
2020,4,2,812,174
2020,4,15,2053,174
2020,2,14,1098,293
2020,8,26,1130,266
2020,7,3,602,215
2020,2,19,2406,142
2020,6,27,715,274
2020,12,21,191,142
2019,12,31,1826,153
2020,8,14,618,266
2020,8,2,1034,215
2020,8,16,587,20
2020,5,17,3283,215
2020,3,15,2995,215
2020,12,16,1966,102
2020,8,6,2334,134
2020,6,8,922,148
2020,4,3,468,261
2020,12,14,1534,303
2020,4,11,1969,174
2020,6,4,2706,142
2020,7,1,1070,168
2020,5,9,1248,125
2020,9,20,1301,20
2020,9,20,2996,279
2020,2,14,332,207
2020,7,29,3359,142
2020,11,14,38,142
2020,5,23,3130,103
2020,11,26,1382,215
2020,3,26,434,31
2020,7,14,1158,142
2020,5,16,3130,142
2020,8,18,1142,23
2020,1,17,199,233
2020,3,31,3237,293
2020,5,5,2635,60
2020,7,25,640,142
2020,8,2,2813,116
2020,6,24,256,260
2020,11,7,3116,260
2020,9,10,618,20
2020,3,3,764,212
2020,12,16,418,226
2020,11,18,935,192
2020,8,4,838,63
2020,11,1,3113,192
2020,5,26,2334,134
2020,1,4,1898,233
2020,4,16,2954,125
2020,10,20,2417,211
2020,7,25,237,20
2020,8,28,1219,260
2020,11,19,1870,192
2020,4,27,1969,233
2020,5,25,909,260
2020,9,1,882,142
2020,4,9,220,63
2020,1,13,1672,192
2020,9,27,1342,192
2020,5,22,3568,296
2020,6,30,1549,102
2020,8,25,1980,116
2020,3,11,2612,296
2020,7,14,446,60
2020,5,16,3457,192
2020,6,20,2120,142
2020,1,20,1423,192
2020,4,13,2877,174
2020,6,4,2069,142
2020,9,12,332,125
2020,2,15,1636,293
2020,6,2,1458,142
2020,5,30,794,264
2020,5,14,234,303
2020,9,23,1704,103
2020,5,6,191,174
2020,7,28,8,215
2020,7,10,1879,233
2020,7,15,812,142
2020,8,15,1304,261
2020,10,23,640,266
2020,9,20,771,279
2020,9,19,1915,20
2020,10,25,640,233
2020,8,25,3097,304
2020,7,10,1674,142
2020,7,20,2253,233
2020,6,20,844,142
2020,7,5,857,142
2020,6,7,1336,192
2020,6,2,2666,20
2020,10,18,97,261
2020,9,25,2417,226
2020,4,19,1032,63
2020,3,26,2155,102
2020,7,14,2779,48
2020,5,18,755,60
2020,8,3,487,60
2020,10,19,3515,67
2020,8,23,1131,20
2020,9,12,651,142
2020,6,14,2486,268
2020,5,11,988,174
2020,4,19,755,309
2020,9,9,1026,215
2020,1,2,1219,192
2020,3,3,882,70
2020,6,6,1021,60
2020,9,20,2195,215
2020,6,7,2565,67
2020,6,26,107,192
2020,11,12,1111,142
2020,11,1,771,67
2020,7,23,1056,60
2020,11,16,2937,192
2020,4,28,1492,116
2020,12,22,2670,116
2020,7,14,1378,207
2020,8,26,590,264
2020,8,6,1952,215
2020,8,28,651,260
2020,5,18,1520,192
2020,7,25,3272,293
2020,12,23,3097,303
2020,11,29,1202,261
2020,8,14,882,142
2020,12,20,857,266
2020,4,14,2333,192
2020,6,2,1266,215
2020,3,27,2514,63
2020,10,24,2201,60
2020,5,20,3260,134
2020,12,14,1451,142
2020,7,28,699,23
2020,10,25,2974,192
2020,9,2,2814,304
2020,11,14,1558,23
2020,7,15,3113,20
2020,5,21,1548,264
2020,10,7,1957,298
2020,12,8,1305,23
2020,1,16,3372,233
2020,5,6,2238,63
2020,7,15,2133,116
2020,1,6,3550,125
2020,8,13,2283,142
2020,1,22,517,142
2020,5,10,1446,303
2020,10,22,738,266
2020,10,23,2754,60
2020,8,22,2063,168
2020,3,26,1558,311
2020,6,14,1981,142
2020,6,22,2229,70
2020,6,6,1221,215
2020,1,23,1233,63
2020,2,13,3366,174
2020,10,15,2529,215
2020,5,7,1499,215
2020,5,10,2197,70
2020,4,2,1900,174
2020,5,28,3550,20
2020,12,14,3237,142
2020,3,11,2861,168
2020,7,8,601,298
2020,8,1,147,260
2020,10,8,984,102
2020,6,25,752,260
2020,2,12,1190,260
2020,6,5,42,116
2020,3,11,1266,63
2020,7,30,1368,157
2020,11,19,1513,88
2020,1,30,701,303
2020,7,11,2037,266
2020,12,14,81,142
2020,8,11,3296,192
2020,3,22,1906,309
2020,5,22,3130,296
2020,9,12,791,260
2020,7,18,2627,215
2020,9,23,1674,130
2020,3,30,2152,174
2019,12,26,909,260
2020,3,5,909,174
2020,8,25,1098,116
2020,7,26,881,226
2020,12,8,2954,263
2020,11,4,3025,67
2020,10,16,1158,20
2020,8,16,375,266
2020,5,21,434,192
2020,6,5,1212,215
2020,8,7,220,233
2020,3,30,755,174
2020,5,6,2744,116
2020,8,30,493,142
2020,7,10,3306,60
2020,12,3,642,142
2020,8,16,1819,215
2020,9,20,3179,142
2020,3,13,3155,293
2020,7,1,1042,260
2020,7,15,3337,142
2020,9,19,2347,63
2020,7,20,2245,279
2020,7,4,319,293
2020,7,24,332,125
2020,8,22,2999,168
2020,9,1,3545,60
2020,11,18,2269,23
2020,8,24,658,303
2020,7,25,590,266
2020,9,4,1150,266
2020,9,7,1021,215
2020,7,12,1915,99
2020,11,11,3368,303
2020,4,24,42,260
2020,3,9,1005,233
2020,6,8,696,142
2020,10,12,1233,142
2020,2,22,1191,63
2020,8,16,3564,142
2020,8,17,1957,162
2020,5,3,237,116
2020,6,3,761,260
2020,7,13,2822,215
2020,5,1,1255,67
2020,2,6,2907,260
2020,7,14,2405,192
2020,5,6,3195,88
2020,3,16,2950,192
2020,2,8,2664,200
2020,4,29,730,215
2020,10,29,3308,116
2020,6,7,106,192
2020,5,31,1969,202
2020,6,14,1969,142
2020,9,4,1158,102
2020,7,15,1060,142
2020,9,10,3350,20
2020,8,1,1979,20
2020,6,8,1520,125
2020,5,6,2459,63
2020,4,29,310,309
2020,8,11,724,142
2020,10,18,3464,102
2020,8,11,2158,192
2020,11,9,2155,215
2020,9,11,3372,266
2020,11,16,3340,88
2020,3,17,2051,261
2020,11,14,642,23
2020,3,24,2133,215
2020,10,18,1358,215
2020,12,20,337,266
2020,8,17,2954,293
2020,9,7,2996,304
2020,1,26,2048,168
2020,7,13,2625,60
2020,12,9,738,298
2020,6,22,1305,142
2020,6,5,2907,20
2020,5,18,1775,130
2020,9,19,2020,130
2020,12,20,88,192
2020,6,3,1933,260
2020,8,19,2614,215
2020,1,5,1382,200
2020,9,13,2321,142
2020,7,16,1774,67
2020,5,31,909,202
2020,1,15,591,174
2020,8,22,97,264
2020,9,29,868,142
2020,5,10,1975,260
2020,9,5,988,142
2020,9,7,3449,297
2020,9,23,2166,63
2020,8,5,3074,192
2020,12,14,1513,162
2020,5,20,932,200
2020,7,30,1032,142
2020,7,13,350,116
2020,5,5,2946,63
2020,8,14,986,60
2020,8,26,3363,266
2020,5,7,863,215
2020,2,1,1149,142
2020,8,23,1828,142
2020,3,13,3140,212
2020,10,20,1971,192
2020,4,17,237,192
2020,11,4,3356,67
2020,5,10,2925,293
2020,10,23,2661,266
2020,7,13,74,142
2020,8,17,2143,264
2020,10,8,3323,102
2020,7,15,2964,168
2020,5,28,437,70
2020,5,3,3296,260
2020,5,13,234,200
2020,4,6,1808,31
2020,11,29,3449,192
2020,7,11,1672,99
2020,7,22,1619,67
2020,3,19,2984,134
2020,3,22,909,215
2020,7,14,2996,192
2020,6,14,2129,274
2020,6,4,286,116
2020,8,14,764,67
2020,3,23,3237,142
2020,8,25,2063,142
2020,9,18,573,142
2020,1,25,1942,63
2020,9,10,1592,20
2020,1,5,1364,233
2020,2,16,2100,233
2020,6,6,1020,142
2020,7,29,1067,20
2020,4,20,2906,207
2020,7,5,1313,260
2020,5,3,434,125
2020,5,22,1131,23
2020,7,28,765,304
2020,11,20,1744,142
2020,9,30,2480,215
2020,6,9,1653,260
2020,7,29,1149,20
2020,7,14,1374,48
2020,8,17,640,20
2020,5,5,127,296
2020,7,12,97,88
2020,10,23,100,62
2020,9,27,3410,266
2020,7,15,2546,233
2020,12,14,3372,303
2020,7,14,107,116
2020,7,15,771,192
2020,5,7,1450,261
2020,6,1,1283,260
2020,6,17,3579,192
2020,1,18,2907,233
2020,7,1,1699,260
2020,1,25,2408,63
2020,1,26,1057,260
2020,8,25,2166,303
2020,5,5,2459,174
2020,6,17,651,192
2020,8,15,1982,116
2020,8,23,1012,212
2020,5,3,1032,309
2020,5,11,2661,88
2020,1,5,984,233
2020,3,18,3101,293
2020,4,16,1219,303
2020,9,7,2479,266
2020,1,27,3197,174
2020,10,6,2603,67
2020,11,5,909,20
2020,4,11,699,174
2020,7,4,1389,226
2020,9,4,1144,142
2020,9,7,1364,301
2020,11,12,1078,284
2020,6,25,276,233
2020,11,22,640,142
2020,9,19,237,303
2020,4,27,868,215
2020,5,6,844,174
2020,10,12,1717,284
2020,3,20,935,70
2020,4,23,562,192
2020,11,11,2956,103
2020,6,2,3403,192
2020,5,22,3332,20
2020,1,26,3025,174
2020,6,1,812,266
2020,9,23,108,266
2020,9,27,587,266
2020,5,18,3429,142
2020,5,4,1670,125
2020,12,23,930,303
2020,7,30,1549,20
2020,9,19,1342,260
2020,7,26,3194,266
2020,5,6,756,215
2020,5,10,1205,60
2020,8,31,304,142
2020,6,11,63,134
2020,7,11,310,99
2020,8,18,536,266
2020,8,28,1425,260
2020,11,9,794,2
2020,1,26,765,168
2020,6,24,1219,116
2020,7,5,739,157
2020,5,5,1549,296
2020,2,20,789,303
2020,9,1,2140,266
2020,8,27,1058,116
2020,6,5,1121,142
2020,11,12,1900,268
2020,12,16,1205,192
2020,9,20,715,103
2020,5,13,468,63
2020,2,11,1441,215
2020,6,1,1048,266
2020,9,6,2514,20
2020,8,26,765,215
2020,6,1,2152,142
2020,6,20,1305,116
2020,5,16,852,162
2020,1,27,207,174
2020,7,17,1255,20
2020,7,16,3431,142
2020,1,23,2158,293
2020,4,13,1158,260
2020,5,18,2893,142
2020,4,26,1101,63
2019,12,29,461,60
2020,8,31,3550,266
2020,11,26,106,215
2020,10,30,591,215
2020,1,4,2797,233
2020,9,11,1005,266
2020,9,21,147,192
2020,9,11,2121,303
2020,9,20,2178,279
2020,7,23,2891,88
2020,7,12,1172,192
2020,5,10,2852,142
2020,8,31,731,20
2020,9,10,553,63
2020,7,4,1067,192
2020,12,14,1494,297
2020,5,17,1237,192
2020,7,25,722,142
2020,4,13,1382,260
2020,5,10,2743,63
2020,5,11,3424,116
2020,12,4,30,142
2020,9,26,1970,142
2020,8,23,2059,266
2020,9,26,468,142
2020,2,27,1342,60
2020,6,16,8,215
2020,8,4,1808,233
2020,1,23,1364,293
2020,6,10,2651,142
2020,5,17,2546,309
2020,8,25,2253,103
2020,8,15,2661,263
2020,8,22,60,88
2020,3,6,2405,142
2020,5,31,1513,215
2020,12,15,988,130
2020,7,16,3212,162
2020,10,17,3155,116
2020,1,19,2152,18
2020,1,17,855,60
2020,4,2,2635,215
2020,6,19,319,142
2020,8,27,2852,69
2020,8,21,106,116
2020,5,10,3449,63
2020,11,20,651,142
2020,9,2,1948,142
2020,9,12,318,279
2020,4,2,2635,116
2020,8,23,2465,192
2020,9,20,1672,20
2020,6,8,493,142
2020,12,6,1828,192
2020,10,29,1777,200
2020,4,2,1534,142
2020,5,11,967,174
2020,4,1,2623,63
2020,2,20,2459,174
2020,6,12,3562,63
2019,12,30,1572,260
2020,11,26,699,260
2020,4,28,771,116
2020,8,22,2420,88
2020,10,25,2486,233
2020,3,3,1142,130
2020,2,28,1382,200
2020,6,4,1668,260
2020,9,3,1070,233
2020,7,5,81,48
2020,2,29,1915,296
2020,6,5,795,20
2020,5,13,651,296
2020,8,5,3350,266
2020,2,17,2059,192
2020,6,7,590,313
2020,8,9,1150,215
2020,5,4,1612,174
2020,12,6,2493,261
2020,1,25,1131,226
2020,4,12,2038,260
2020,5,6,1297,260
2020,8,23,1121,260
2020,3,24,3500,233
2020,10,3,3165,226
2020,8,27,1933,200
2020,11,21,3530,134
2020,9,27,1111,88
2020,6,1,1556,116
2020,8,16,1333,202
2020,9,10,1898,70
2020,9,20,622,215
2020,5,17,853,88
2020,8,22,1898,264
2020,8,5,730,134
2020,5,13,2155,67
2020,7,17,2674,116
2020,5,11,1020,174
2020,4,4,856,142
2020,12,6,1744,261
2020,10,31,2197,192
2020,5,6,764,88
2020,7,17,3449,311
2020,3,26,1900,31
2020,9,6,2512,15
2020,1,27,3241,125
2020,3,28,3449,103
2020,4,19,2308,67
2020,7,18,1337,67
2020,9,7,60,263
2020,7,16,3568,142
2020,5,19,2950,293
2020,2,1,3116,260
2020,7,29,8,260
2020,10,29,3232,142
2020,7,10,1601,233
2020,4,13,2787,260
2020,5,17,3550,142
2020,9,1,2152,142
2020,6,1,1548,298
2019,12,26,3233,60
2020,4,3,330,226
2020,9,12,2417,125
2020,1,12,2665,293
2020,5,19,795,293
2020,10,24,967,192
2020,10,29,3449,264
2020,7,3,2758,303
2020,9,2,254,302
2020,8,5,324,142
2020,10,18,332,261
2020,9,4,771,142
2020,4,6,2152,142
2020,8,11,1418,260
2020,9,20,1158,260
2020,10,7,1619,298
2020,7,17,2867,67
2020,8,31,1286,116
2020,8,17,3251,293
2020,8,12,1385,192
2020,6,3,2510,63
2020,6,2,2661,192
2020,3,13,2950,293
2020,5,17,453,266
2020,7,10,106,233
2020,8,16,882,88
2020,8,6,2321,233
2020,6,12,2635,142
2020,2,17,1202,60
2020,7,13,1219,88
2020,7,14,2586,88
2020,9,3,1503,60
2020,9,11,1923,116
2020,6,3,1208,116
2020,6,22,1825,142
2020,9,7,428,142
2020,3,20,2047,293
2020,6,24,310,116
2020,4,2,1859,215
2020,7,30,1492,264
2020,1,8,105,192
2020,1,5,1969,233
2020,2,16,1969,102
2020,7,14,1236,67
2020,11,17,234,303
2020,8,16,246,130
2020,4,30,141,130
2020,7,29,477,303
2020,5,12,52,192
2020,7,22,1342,215
2020,6,4,2726,142
2020,5,20,1069,215
2020,5,10,685,309
2020,5,10,1314,260
2020,9,20,1721,63
2020,12,21,2334,142
2020,8,12,2420,99
2020,4,30,2121,260
2020,9,13,1774,142
2020,6,19,1717,134
2020,5,30,434,142
2020,3,13,1859,102
2020,3,30,1950,63
2020,3,26,3025,192
2020,9,30,1312,266
2020,3,7,3567,192
2020,9,18,729,260
2020,9,2,1397,215
2020,3,13,853,174
2020,11,30,967,125
2020,4,13,2286,233
2020,7,10,2665,233
2020,10,11,409,215
2020,6,11,2852,23
2020,6,4,2528,88
2020,6,27,1172,274
2020,5,30,398,284
2020,5,16,1248,293
2020,4,7,2867,260
2020,1,31,1798,174
2020,9,7,3559,20
2019,12,26,2554,168
2020,5,30,975,264
2020,5,6,3179,63
2020,8,4,3296,233
2020,3,21,1534,192
2020,6,1,988,301
2020,3,6,1418,142
2020,7,29,640,60
2020,6,3,1601,192
2020,7,14,795,207
2020,5,8,1298,260
2020,11,19,3490,142
2020,6,17,2019,311
2020,7,16,1957,215
2020,5,6,1389,63
2020,6,24,411,116
2020,5,5,3101,116
2020,4,27,3206,142
2020,2,14,1513,63
2020,8,18,2901,125
2020,8,11,724,168
2020,12,5,1549,266
2020,6,6,3387,215
2020,5,23,3215,260
2020,7,15,3472,303
2020,8,24,3046,54
2020,6,5,2574,266
2020,6,2,1091,215
2020,9,7,1423,60
2020,12,6,984,261
2020,6,27,1076,130
2020,5,10,2155,142
2020,5,23,3437,103
2020,10,12,2665,142
2020,7,3,3342,266
2020,5,5,2622,174
2020,7,12,1772,116
2020,2,14,2954,63
2020,1,5,1492,233
2020,5,16,3357,162
2019,12,26,1542,200
2020,11,20,2797,192
2020,11,29,3429,142
2020,7,26,2921,215
2020,5,18,1418,293
2020,10,24,1142,142
2020,5,23,2201,215
2020,1,15,1923,268
2020,8,25,1378,88
2020,2,14,2020,309
2020,7,2,1282,192
2020,7,14,2922,60
2020,8,23,3155,142
2020,7,28,2698,60
2020,7,21,1933,63
2020,6,8,2121,102
2020,11,2,752,192
2020,6,26,8,297
2020,10,7,1772,54
2020,6,22,2417,298
2020,10,25,1144,284
2020,5,19,698,142
2020,6,1,2345,162
2020,8,16,3568,215
2020,5,18,1559,215
2020,5,17,2635,142
2020,12,5,2479,298
2020,6,29,2904,215
2020,8,4,1859,142
2020,12,21,930,142
2020,2,13,2901,215
2020,6,3,3500,192
2020,5,5,1952,60
2020,9,3,2982,233
2020,10,24,3545,233
2020,1,19,1144,260
2020,7,30,2907,142
2020,2,1,2493,303
2020,11,18,2020,266
2020,11,9,658,23
2019,12,29,2673,60
2020,6,7,630,142
2020,9,3,3360,293
2020,7,23,909,142
2020,8,18,3323,23
2020,3,18,1342,293
2020,11,3,2255,301
2020,8,31,1777,20
2020,5,23,1408,215
2020,9,20,3372,279
2020,8,14,3562,266
2020,1,26,2901,174
2020,10,25,147,103
2020,7,21,1964,63
2020,9,19,1952,130
2020,7,30,1982,20
2020,10,5,3425,142
2020,8,7,730,134
2020,2,23,1878,60
2020,7,31,2884,268
2020,5,15,1793,233
2020,7,29,724,116
2020,3,3,1969,70
2020,12,12,1736,142
2020,1,27,60,174
2020,5,23,485,142
2019,12,28,2847,260
2020,12,8,1564,260
2020,7,12,332,99
2020,7,26,2987,260
2020,1,18,795,233
2020,1,16,3025,233
2020,7,29,986,174
2020,12,2,3272,192
2020,11,3,1093,302
2020,5,18,2822,116
2020,5,16,1090,157
2020,5,10,2913,63
2020,6,8,590,102
2020,3,28,1360,192
2020,4,22,411,174
2020,6,13,95,264
2020,4,15,2758,296
2020,11,19,1221,148
2020,9,27,579,266
2020,5,15,1131,67
2020,4,13,2255,88
2020,5,26,2904,67
2020,6,26,1142,124
2020,7,28,2840,23
2020,6,22,60,142
2020,9,5,2670,192
2020,5,2,583,125
2020,5,16,1142,293
2020,2,16,3342,60
2020,6,7,829,192
2020,8,13,2508,192
2020,7,26,1878,303
2020,7,14,1573,20
2020,4,19,1969,309
2020,9,26,3233,215
2020,8,17,3337,168
2020,10,30,3130,215
2020,8,22,332,264
2020,6,1,2486,20
2020,7,30,233,142
2020,6,27,3121,215
2019,12,31,794,153
2020,1,2,3372,303
2020,7,28,3501,298
2020,5,21,1208,264
2020,12,8,2863,134
2020,8,11,213,266
2020,7,14,2455,48
2020,7,21,1212,67
2020,8,12,3429,142
2020,8,25,1948,60
2020,8,25,722,88
2020,6,2,60,192
2020,7,26,1950,303
2020,11,22,234,142
2020,11,19,545,88
2020,6,13,1529,15
2020,8,17,3424,88
2020,6,17,3338,290
2020,12,6,1020,192
2020,4,1,755,63
2020,1,26,640,116
2020,8,23,1070,88
2020,7,3,2255,266
2020,1,16,2059,174
2020,9,20,1982,69
2020,9,25,1951,226
2020,3,28,2155,215
2020,9,11,1078,142
2020,8,20,1513,296
2020,6,1,1121,260
2020,5,16,3449,54
2020,7,14,882,192
2020,6,1,1212,20
2020,6,1,1408,266
2020,6,25,2197,266
2020,2,2,3354,31
2020,9,12,579,142
2020,1,31,2387,260
2020,8,30,3545,142
2020,9,9,2592,162
2020,1,7,319,142
2020,1,16,106,233
2020,5,6,1793,215
2020,5,7,3410,67
2020,8,6,3329,142
2020,7,30,2022,266
2020,5,11,1744,88
2020,3,24,254,233
2020,12,23,640,303
2020,9,11,1975,303
2020,8,7,105,260
2020,7,26,3155,264
2020,6,12,2145,142
2020,8,6,2195,116
2020,8,27,1558,215
2020,7,14,3113,60
2020,12,15,1447,130
2020,8,3,38,266
2020,7,20,1511,260
2020,7,1,1423,168
2020,12,23,756,303
2020,1,11,2797,293
2020,7,13,1253,266
2020,6,11,2996,304
2020,8,11,1844,266
2020,5,21,110,191
2020,7,9,2913,23
2020,5,18,771,20
2020,7,28,3179,304
2020,6,8,1950,125
2020,12,8,1020,263
2020,9,12,1507,215
2020,4,17,1364,212
2020,10,18,1101,215
2020,3,28,1624,18
2020,6,9,728,116
2020,9,18,1342,20
2020,7,26,587,226
2020,9,25,207,226
2020,1,4,1482,233
2020,9,4,906,142
2020,7,4,1825,142
2020,11,3,1793,142
2020,5,13,60,200
2020,1,7,1205,142
2020,2,29,3443,60
2020,8,15,591,226
2020,7,28,731,116
2020,6,26,2670,260
2020,8,4,2532,226
2020,2,26,1253,174
2020,9,20,2852,215
2020,1,2,493,296
2020,10,17,2822,20
2020,9,12,3113,266
2020,8,26,2481,116
2020,5,5,2954,168
2020,5,25,1571,215
2020,7,26,1808,88
2020,9,4,2443,192
2020,6,2,2546,192
2020,4,29,1095,192
2020,2,15,365,63
2020,2,12,1745,63
2020,8,1,1719,142
2020,5,17,2255,215
2019,12,30,2623,260
2020,7,15,1393,202
2020,8,15,680,226
2020,5,21,987,215
2020,12,13,2622,142
2020,8,11,1492,192
2020,9,27,213,142
2020,1,22,2594,233
2020,6,4,2244,60
2020,3,16,2913,309
2020,5,23,1982,215
2020,9,7,2105,260
2020,6,2,1045,116
2020,5,10,896,215
2020,11,18,147,266
2020,9,4,2858,88
2020,5,22,882,23
2020,7,31,3229,142
2020,5,3,1020,63
2020,6,30,738,102
2020,5,6,2121,296
2020,12,23,1479,266
2020,5,6,2913,116
2020,9,2,1492,142
2020,3,25,1458,260
2020,12,8,2464,293
2020,5,13,3449,70
2020,9,20,1692,103
2020,8,8,3037,215
2020,6,23,1486,260
2020,7,25,1774,296
2020,8,14,2178,274
2020,8,31,446,116
2020,6,25,1378,60
2020,10,10,3053,116
2020,2,28,2758,200
2019,12,26,42,260
2020,5,31,1549,142
2020,3,26,1672,67
2020,3,31,2037,130
2019,12,31,2178,153
2020,10,3,562,311
2020,11,1,2472,192
2020,6,20,100,116
2020,10,22,2867,192
2020,7,26,2253,79
2020,6,24,2020,142
2020,5,18,2625,63
2020,5,1,2713,67
2020,8,21,738,264
2020,7,28,3442,131
2020,7,30,100,142
2020,11,25,909,274
2020,1,15,3323,63
2020,9,10,2503,142
2020,8,28,115,215
2020,9,23,379,178
2020,2,3,1368,311
2020,6,4,855,142
2020,4,16,2820,142
2020,6,4,1158,142
2020,7,4,3341,303
2020,9,2,3155,192
2020,7,13,485,279
2020,9,26,3130,142
2020,9,21,588,215
2020,7,13,1772,70
2020,7,21,1015,266
2020,2,15,3351,102
2020,8,26,2893,60
2020,6,19,1301,134
2020,3,26,2698,142
2020,6,4,2925,260
2020,5,17,2586,116
2020,7,28,2461,60
2020,8,8,724,142
2020,6,4,3320,212
2020,7,26,1849,88
2020,5,6,1878,174
2020,8,17,636,116
2020,6,1,1158,192
2020,8,23,362,142
2020,7,18,1021,296
2020,8,31,8,20
2020,8,9,2546,192
2020,7,30,434,264
2020,7,28,3480,266
2020,1,5,493,233
2020,9,4,2069,102
2020,5,6,2405,215
2020,1,18,2665,233
2020,7,1,3023,266
2020,12,23,1744,192
2020,10,19,553,148
2020,5,5,1648,226
2020,6,5,1911,31
2020,6,4,411,142
2020,4,5,2099,134
2020,3,28,1408,142
2020,8,27,1067,303
2020,7,13,3251,88
2020,1,18,699,233
2020,10,18,2032,142
2020,7,5,685,142
2020,10,22,2901,192
2020,7,13,1130,215
2020,3,10,2797,192
2020,11,11,2717,215
2020,6,23,3562,116
2020,6,8,553,148
2020,7,25,1672,63
2020,6,10,3111,60
2020,10,13,3449,18
2020,8,25,700,266
2020,10,23,412,226
2020,5,10,1793,260
2020,6,12,97,67
2020,7,14,3390,142
2020,10,20,3530,211
2020,11,26,383,134
2020,11,25,2978,266
2020,5,18,984,20
2020,3,10,1067,296
2019,12,31,1923,153
2020,5,10,579,260
2020,4,29,724,309
2020,8,23,2666,260
2020,6,7,755,142
2020,6,8,2465,142
2020,11,20,2066,293
2020,7,28,2698,260
2020,9,2,2069,192
2020,11,29,3025,261
2020,6,9,882,192
2020,8,24,1952,116
2020,4,25,3020,215
2020,10,20,1534,162
2020,11,10,302,20
2020,3,10,1423,192
2020,9,30,3449,134
2020,11,7,1423,260
2020,8,8,2195,295
2020,2,1,1034,174
2020,6,16,1658,303
2020,5,5,1552,174
2020,4,3,715,67
2020,7,17,795,67
2020,5,13,1737,20
2020,4,13,2349,303
2020,6,5,3254,20
2020,7,26,2334,266
2020,3,23,1172,60
2020,1,6,398,125
2020,4,22,1451,233
2020,6,11,1625,192
2020,10,20,1418,162
2020,6,12,2158,67
2020,10,25,984,298
2020,4,2,1202,116
2020,6,11,1646,266
2020,8,25,2954,142
2020,1,2,823,192
2020,12,14,3173,303
2020,1,23,2486,63
2020,10,27,3236,260
2020,7,14,3116,192
2019,12,29,1412,60
2020,8,15,174,212
2020,8,17,1621,304
2020,5,11,626,168
2020,2,16,3328,233
2020,5,26,658,134
2020,10,22,2200,215
2020,8,24,2416,142
2020,8,14,2546,274
2020,12,6,752,162
2020,6,11,1130,23
2020,6,8,984,102
2020,9,27,1625,192
2020,3,21,2412,192
2020,3,22,517,233
2020,9,1,2785,303
2020,6,26,2987,88
2020,8,9,3039,215
2020,5,5,2461,260
2020,5,6,3334,303
2020,11,9,2743,215
2020,5,13,1202,200
2020,11,3,1408,301
2020,5,6,1219,116
2020,1,11,1058,293
2020,8,24,1627,142
2020,4,12,1205,192
2020,7,3,607,142
2020,5,6,1480,63
2020,9,10,3155,62
2020,12,16,299,192
2020,5,6,1653,303
2020,5,6,2291,63
2020,11,7,2937,23
2020,4,27,1150,215
2020,10,19,199,192
2020,7,23,2996,142
2020,5,5,2387,215
2020,8,26,319,266
2020,11,3,3530,301
2020,1,31,199,174
2020,11,16,1220,192
2020,9,20,1828,192
2020,5,19,651,142
2020,7,1,1859,168
2020,11,19,1423,192
2020,6,15,2562,60
2020,1,26,1879,116
2020,10,15,1740,215
2020,8,21,1971,116
2020,1,10,983,60
2020,4,12,1828,192
2020,6,1,722,116
2020,2,3,2108,311
2020,9,20,1301,69
2020,12,14,668,303
2020,7,16,1555,142
2020,12,19,765,192
2020,7,21,310,63
2020,8,18,1549,125
2020,11,19,1559,192
2020,4,15,1975,293
2020,3,19,2982,63
2020,10,12,1144,284
2020,8,15,1861,226
2020,8,14,1878,266
2020,7,28,1423,266
2020,7,29,881,116
2020,5,31,1364,142
2020,7,30,881,264
2020,2,14,1289,215
2020,9,13,771,279
2020,9,7,917,215
2020,8,9,3447,266
2020,5,26,993,67
2020,7,20,1390,279
2020,4,8,348,296
2019,12,30,1020,260
2020,11,19,1636,88
2020,12,13,1418,142
2020,3,12,765,260
2020,4,1,1828,63
2020,7,21,468,274
2020,3,27,1969,63
2020,2,15,1322,261
2020,1,18,1636,233
2020,10,5,428,228
2020,8,5,2956,125
2020,11,23,2674,23
2020,2,18,1744,226
2020,6,4,1923,215
2020,8,15,930,226
2020,5,30,2506,215
2020,7,2,2178,261
2020,11,24,1223,134
2020,8,31,2996,20
2020,11,1,1744,67
2020,8,9,1342,192
2020,1,10,1202,174
2020,8,1,975,116
2020,7,15,3550,142
2020,2,3,1549,311
2020,10,27,3116,125
2020,7,26,680,260
2020,6,2,3111,157
2020,5,10,1704,174
2020,6,12,2064,142
2020,5,16,1423,192
2020,9,27,3251,191
2020,7,26,888,20
2020,9,18,2588,142
2020,1,8,475,142
2020,5,10,1245,260
2020,12,23,3272,215
2020,9,7,2661,60
2020,8,7,922,116
2020,9,10,1957,116
2020,9,12,805,142
2020,2,9,1653,102
2020,8,8,1632,212
2020,1,16,2111,174
2020,11,5,2546,142
2020,3,30,2857,142
2020,5,5,2959,215
2020,6,9,1249,284
2020,9,12,3279,260
2020,8,28,668,215
2020,5,30,1975,284
2020,8,7,60,116
2020,7,25,835,60
2020,7,15,377,142
2020,8,18,1871,142
2020,9,12,1548,142
2020,9,19,1879,130
2020,8,11,881,174
2020,11,19,3424,88
2020,7,5,640,142
2020,8,30,860,192
2019,12,31,3053,153
2020,2,29,2797,296
2020,9,18,1632,134
2020,5,2,1859,142
2020,6,1,2625,102
2020,11,17,1305,215
2020,8,15,658,295
2020,5,11,1142,116
2020,6,2,1862,157
2020,10,8,2701,125
2020,7,29,2950,116
2020,6,8,2032,142
2020,8,24,2622,192
2020,9,16,1205,274
2020,6,5,2913,142
2020,5,5,1058,174
2020,11,21,2387,134
2020,8,9,2729,23
2020,3,16,97,192
2020,1,10,1603,142
2020,12,14,1305,142
2020,8,21,1024,260
2020,8,23,3272,266
2020,6,6,1927,298
2020,6,14,3283,268
2020,9,3,2408,142
2020,8,24,2661,192
2020,12,21,2289,192
2020,8,29,2904,215
2019,12,28,2748,309
2020,2,18,762,192
2020,3,6,2088,142
2020,11,16,2155,67
2020,7,28,3205,260
2020,9,16,50,20
2020,10,20,1839,304
2020,3,22,3547,31
2020,1,8,3230,212
2020,5,15,2565,192
2020,9,7,1063,88
2020,10,12,1067,142
2020,7,15,2409,192
2020,9,12,2265,142
2020,8,17,2132,168
2020,9,1,3197,142
2020,4,27,2901,233
2020,12,8,2110,226
2020,6,19,1808,215
2020,5,10,1548,116
2020,9,27,1418,192
2020,8,31,2510,264
2020,9,9,3296,215
2020,4,12,2807,293
2020,7,23,81,266
2020,1,8,1202,311
2020,9,13,1158,20
2020,7,28,2334,266
2020,3,26,3068,130
2020,5,10,1957,157
2020,7,5,207,157
2020,6,20,3280,142
2020,5,3,1283,116
2020,6,1,484,266
2020,1,31,1133,260
2020,9,1,459,303
2020,6,26,894,157
2020,5,7,562,261
2020,6,2,2592,130
2020,12,15,2417,130
2020,10,1,789,116
2020,11,5,798,142
2020,7,1,485,260
2020,3,3,1900,62
2020,3,16,1378,192
2020,8,26,3372,264
2020,2,4,618,63
2020,5,5,590,168
2020,6,23,2302,103
2020,7,23,1921,142
2020,1,11,1058,125
2020,9,10,1144,226
2020,2,15,1396,233
2020,6,29,2855,60
2020,10,27,1808,142
2020,6,7,2779,67
2020,10,13,1595,254
2020,12,24,988,142
2020,10,10,2465,192
2020,12,14,2954,303
2020,5,15,330,260
2020,7,13,1786,102
2020,3,9,2018,192
2020,7,9,1672,23
2020,7,13,1111,60
2020,4,13,3530,233
2020,6,4,2125,264
2020,2,15,332,293
2020,9,2,477,215
2020,3,23,3322,174
2020,8,28,2538,260
2020,11,25,246,116
2020,5,6,1744,116
2020,9,18,791,20
2020,7,30,1534,266
2020,4,19,3025,309
2020,7,15,2221,20
2020,5,12,1971,192
2020,3,21,2253,52
2020,7,31,2201,266
2020,6,22,3530,266
2020,7,29,1013,134
2020,3,22,730,296
2020,11,11,834,142
2020,8,14,3545,142
2020,2,9,1591,192
2020,8,31,651,264
2020,8,17,1150,88
2020,8,25,1612,142
2020,12,16,2239,142
2020,10,30,1463,297
2020,5,13,1408,67
2020,8,4,1061,274
2020,7,15,1707,142
2020,10,21,2910,60
2020,6,2,3424,116
2020,5,10,1808,70
2020,5,6,81,116
2020,9,17,1558,215
2020,5,30,3530,284
2020,9,7,2835,102
2020,10,24,696,192
2020,8,21,485,116
2020,11,27,975,233
2020,12,20,1382,192
2020,8,28,191,174
2020,10,23,1827,23
2020,9,11,1658,279
2020,5,10,1175,303
2020,8,3,1755,261
2020,11,9,2493,301
2020,9,26,1844,2
2020,3,28,988,103
2020,4,1,1142,63
2020,5,9,3291,125
2020,7,19,3285,142
2020,5,13,2285,174
2020,5,5,1364,296
2020,4,2,3327,142
2020,6,7,731,168
2020,12,10,988,67
2020,5,7,1408,261
2020,6,4,305,215
2020,6,8,628,192
2020,5,29,2455,134
2020,7,14,703,20
2020,7,14,328,60
2020,1,26,1301,116
2020,10,22,1900,192
2020,9,26,454,142
2020,1,12,81,67
2020,7,2,106,261
2020,8,14,3116,274
2020,4,16,1915,125
2020,5,5,1098,296
2020,3,27,1150,60
2020,6,24,1969,116
2020,10,22,2253,19
2020,9,16,2048,260
2020,6,2,3545,192
2020,8,29,329,233
2020,9,6,960,142
2020,7,13,1322,88
2020,12,8,708,266
2020,9,21,812,63
2020,8,11,3116,168
2020,9,21,1034,20
2020,11,12,3372,142
2020,7,28,1534,23
2020,10,25,1636,298
2020,6,25,2121,192
2020,9,9,3350,215
2020,3,13,2120,215
2020,12,14,25,116
2020,4,11,2063,215
2020,3,27,2155,60
2020,4,7,1111,260
2020,8,22,512,134
2020,10,23,3350,266
2020,4,11,310,233
2020,9,3,2935,274
2020,6,4,3416,142
2020,6,24,1189,215
2020,9,2,3030,153
2020,7,13,1744,60
2020,8,9,3530,142
2020,6,1,1211,116
2020,3,9,3227,125
2020,8,23,668,116
2020,3,20,3061,192
2020,8,3,6,102
2020,10,14,1619,142
2020,8,25,1670,266
2020,8,4,88,309
2020,5,28,3195,192
2020,6,21,1606,142
2020,6,12,1119,142
2020,7,24,2867,125
2020,5,17,337,215
2020,11,20,1923,142
2020,3,11,2218,293
2020,8,2,2848,260
2020,8,22,3113,264
2020,11,16,3480,67
2020,10,7,237,54
2020,10,23,127,116
2020,12,12,2715,130
2020,9,6,1636,20
2020,9,13,2158,192
2020,10,23,1067,116
2020,12,24,1800,142
2020,4,23,106,192
2020,9,25,636,284
2020,10,5,3023,268
2020,9,12,335,298
2020,7,29,698,134
2020,10,30,3206,134
2020,1,14,963,260
2020,6,11,3236,88
2020,8,7,81,125
2020,3,13,1021,293
2020,10,24,332,60
2020,1,23,1861,293
2020,8,24,1717,142
2020,11,19,876,260
2020,9,19,1301,260
2020,6,8,97,142
2020,9,11,3323,301
2020,3,19,3223,226
2020,7,30,3101,266
2020,5,18,3096,142
2020,4,23,310,192
2020,8,5,2201,303
2020,4,2,930,215
2020,6,17,2162,260
2020,2,1,1975,303
2020,8,1,651,260
2020,5,18,1301,20
2020,8,26,1233,303
2020,1,23,1672,134
2020,6,3,237,192
2020,6,24,409,60
2020,8,21,630,142
2020,8,21,3282,20
2020,4,12,1636,142
2020,4,30,888,174
2020,7,21,591,63
2020,8,7,1878,263
2020,2,8,1167,233
2020,9,19,1205,192
2020,3,3,1202,70
2020,6,4,1103,142
2020,1,26,3013,63
2020,1,15,1095,268
2020,8,28,487,215
2020,10,8,1740,142
2020,8,11,2405,168
2020,3,28,3549,215
2020,8,25,1878,88
2020,7,13,8,215
2020,1,28,3347,303
2020,3,1,914,293
2020,9,12,1772,266
2020,11,10,2244,142
2020,9,20,845,192
2020,3,7,1678,168
2020,10,18,978,261
2020,8,7,2713,263
2020,8,14,1396,142
2020,9,5,1130,215
2020,8,26,1534,102
2020,6,23,1447,67
2020,1,17,59,233
2020,6,2,722,192
2020,4,14,2483,67
2020,4,2,1549,174
2020,7,17,2822,20
2020,4,12,1973,260
2020,6,7,881,192
2020,9,29,2993,260
2020,11,11,1408,67
2020,4,11,1423,174
2020,7,13,1451,215
2020,6,15,2622,142
2020,5,29,411,142
2020,11,26,1808,215
2020,7,15,812,168
2020,3,22,3403,174
2020,6,5,2513,142
2020,7,13,163,142
2020,5,18,2387,284
2020,5,9,2982,18
2020,5,16,1614,63
2020,7,13,2680,102
2020,7,12,812,116
2020,9,2,3097,142
2020,7,31,566,20
2020,8,8,2117,192
2020,8,28,194,215
2019,12,30,2195,217
2020,7,30,1878,142
2020,9,5,2020,130
2020,8,16,311,48
2020,1,8,2059,311
2020,11,24,2253,298
2020,8,25,2546,20
2020,9,7,2996,266
2020,7,10,2486,233
2020,4,29,2950,309
2020,5,3,127,125
2020,10,12,1301,142
2020,11,9,1619,297
2020,7,13,1952,116
2020,6,27,967,297
2020,11,17,1900,212
2020,2,16,1378,70
2020,9,11,3337,309
2020,5,25,1021,266
2020,6,25,1150,192
2020,8,25,1015,266
2020,2,24,1763,192
2020,2,15,1071,192
2020,11,11,1153,67
2020,9,1,2225,142
2020,7,2,1878,298
2020,1,23,30,293
2020,6,1,2743,142
2020,8,24,700,116
2020,4,17,106,212
2020,7,23,1617,266
2020,5,16,921,260
2020,6,5,301,293
2020,8,24,548,192
2020,2,15,1859,125
2020,4,19,986,60
2020,3,13,1136,215
2020,3,13,398,215
2020,6,23,680,260
2020,5,15,76,268
2020,8,18,834,142
2020,2,6,1034,200
2020,6,11,3497,157
2020,5,13,812,102
2020,8,8,2530,20
2020,10,23,1266,260
2020,12,14,832,125
2020,1,30,434,233
2020,9,3,501,102
2020,8,23,1679,20
2020,6,7,888,313
2020,10,22,591,266
2020,5,16,1121,162
2020,4,14,2666,215
2020,7,29,729,102
2020,4,23,618,192
2020,10,17,60,20
2020,4,2,304,303
2020,1,30,909,233
2020,9,11,1144,215
2020,6,5,1301,142
2020,11,1,3116,67
2020,9,30,116,130
2020,9,7,2829,260
2020,7,23,2158,142
2020,8,31,3130,116
2020,9,28,1970,215
2020,9,4,1098,142
2020,8,30,715,67
2020,3,30,3424,174
2020,3,22,2121,174
2020,9,3,1130,297
2020,7,4,3387,142
2020,8,25,2191,116
2020,9,18,468,142
2020,8,24,1418,142
2020,1,13,1073,215
2020,6,1,3278,116
2020,9,5,1395,142
2020,4,19,2748,233
2020,5,6,1130,142
2020,3,28,207,103
2020,3,13,1699,303
2020,8,16,1520,88
2020,4,3,3260,67
2020,8,15,696,226
2020,8,18,1898,215
2020,5,9,1744,88
2020,1,16,1812,215
2020,8,28,1211,226
2020,7,31,2889,266
2020,10,25,234,298
2020,6,24,486,142
2020,4,11,352,226
2020,5,14,2172,116
2020,9,12,1843,142
2020,3,26,203,260
2020,8,26,1870,162
2020,4,15,237,293
2020,12,23,237,303
2020,6,12,1828,142
2020,1,30,1070,233
2020,6,8,1686,142
2020,2,15,731,63
2020,8,28,724,309
2020,11,10,3549,274
2020,7,14,3260,48
2020,10,10,2178,233
2020,8,18,1548,23
2020,2,7,2987,260
2020,6,2,745,142
2020,4,19,1954,192
2020,4,25,1135,260
2020,7,30,1111,142
2020,7,12,1520,116
2020,7,25,1364,63
2020,2,14,115,309
2020,9,18,1672,20
2020,1,25,106,174
2020,6,9,1577,142
2020,6,1,2036,298
2020,10,3,795,192
2020,8,26,1915,215
2020,5,26,1951,260
2020,3,29,709,63
2020,4,26,1914,67
2020,4,4,1904,18
2020,9,14,2517,226
2020,7,10,3064,60
2020,8,15,468,116
2020,11,3,1492,142
2019,12,26,752,260
2020,3,26,2158,192
2020,8,11,984,174
2020,8,15,2786,260
2020,7,17,3242,268
2020,11,4,1423,67
2020,9,11,1744,301
2020,3,30,2517,63
2020,10,19,320,148
2020,6,5,427,60
2020,5,13,1826,200
2020,5,7,310,215
2020,12,20,3208,301
2020,8,24,1028,226
2020,9,2,365,302
2020,5,28,926,261
2020,4,21,2517,260
2020,8,24,2907,266
2020,5,4,398,226
2020,6,4,1717,142
2020,8,28,3130,200
2020,12,23,590,192
2020,5,5,2939,215
2020,8,21,640,260
2020,12,12,3236,215
2020,5,31,812,142
2020,1,2,812,296
2020,11,16,2321,142
2020,3,1,116,18
2020,9,23,81,266
2020,10,8,1095,102
2020,10,9,60,116
2020,9,21,1061,63
2020,4,3,765,226
2020,6,5,2480,142
2020,6,12,2359,63
2020,9,16,2510,274
2020,5,30,1364,284
2020,4,16,2950,303
2020,12,13,2987,142
2020,2,6,2867,260
2020,2,14,493,207
2020,8,16,2253,142
2020,11,5,2020,20
2020,5,10,1915,116
2020,6,25,1772,142
2020,5,5,2069,215
2020,8,25,1312,116
2020,5,26,3082,215
2020,7,10,2059,233
2020,4,2,2797,18
2020,6,17,882,298
2020,12,9,2808,192
2020,10,20,1705,211
2020,5,16,3313,142
2020,11,30,1808,263
2020,10,24,2838,215
2020,10,6,147,260
2020,6,4,3155,215
2020,10,13,60,67
2020,8,27,2395,215
2020,7,5,562,48
2020,5,19,1116,88
2020,8,1,1870,266
2020,2,15,127,233
2020,7,23,304,226
2020,5,24,3291,215
2020,6,27,2409,297
2020,7,14,487,60
2020,5,6,795,303
2020,8,1,2345,266
2020,8,15,1614,60
2020,8,10,2152,142
2020,8,3,2956,99
2020,7,22,1255,67
2020,12,21,2020,192
2020,6,2,2125,157
2020,9,19,984,130
2020,11,2,3568,215
2020,5,17,2867,298
2020,11,26,1619,260
2020,5,6,243,63
2020,10,28,254,233
2020,1,7,765,142
2020,12,22,2622,20
2020,6,15,548,260
2020,3,26,1664,260
2020,8,25,591,88
2020,10,23,912,260
2020,2,6,2622,200
2020,8,20,1744,296
2020,5,18,1672,130
2020,3,28,988,63
2020,1,15,3101,260
2020,6,10,1808,142
2020,5,5,2901,60
2020,7,26,930,301
2020,6,25,185,264
2020,10,3,922,311
2020,7,16,3564,233
2020,9,5,591,142
2020,2,15,2824,260
2020,8,25,23,233
2020,1,20,812,192
2020,5,4,1717,226
2020,8,20,493,296
2020,10,5,3449,228
2020,8,23,3236,260
2020,7,22,1202,215
2020,9,9,3046,20
2020,6,3,881,192
2020,5,5,663,63
2020,10,18,1058,261
2020,1,6,3399,125
2020,11,7,3155,260
2020,7,2,3530,19
2020,2,28,928,63
2020,9,20,2411,63
2020,6,5,1898,20
2020,8,26,627,60
2020,10,23,618,116
2020,3,29,2158,290
2020,7,29,147,20
2020,7,8,1601,116
2020,8,7,823,266
2020,2,14,2757,70
2020,9,10,2083,162
2020,5,5,663,192
2020,5,23,2071,293
2020,7,26,351,266
2020,9,2,319,260
2020,4,4,2873,192
2020,9,19,445,215
2020,2,16,1212,102
2020,8,6,3113,233
2020,4,12,2255,200
2020,7,31,566,192
2020,3,22,2178,174
2020,6,19,276,140
2020,3,12,1639,215
2020,8,5,2506,303
2020,6,3,2567,264
2020,7,26,2178,226
2020,8,3,60,266
2020,3,23,765,215
2020,2,27,237,60
2020,7,1,2152,215
2020,9,21,1900,192
2020,7,12,2461,23
2020,1,16,774,63
2020,10,7,1396,54
2020,9,13,1672,264
2020,8,26,703,192
2020,4,9,1071,63
2020,9,10,1692,116
2020,7,15,2867,60
2020,5,17,2625,298
2020,9,1,642,260
2020,7,15,1368,142
2020,10,16,548,20
2020,8,17,2705,309
2020,11,16,1655,60
2020,3,26,1418,174
2020,6,7,127,142
2020,4,6,738,31
2020,5,17,3260,266
2020,2,24,1033,192
2020,2,1,365,260
2020,7,10,930,233
2020,9,12,922,125
2020,5,18,1095,142
2020,9,1,1956,142
2020,4,2,2625,116
2020,10,10,1619,19
2020,8,23,1061,20
2020,8,7,553,142
2020,10,24,1408,192
2020,7,29,795,142
2020,5,18,2493,266
2020,8,28,2178,200
2020,8,19,1931,142
2020,2,6,1744,260
2020,4,19,311,309
2020,1,23,965,296
2020,3,13,1494,260
2020,8,29,365,60
2020,11,20,3237,67
2020,8,4,1233,63
2020,5,30,1566,116
2020,3,22,108,296
2020,4,25,2996,63
2020,5,10,1879,215
2020,8,6,328,233
2020,8,15,2253,142
2020,10,19,246,148
2020,9,2,699,142
2020,8,25,1923,304
2020,3,28,1600,215
2020,8,25,700,67
2020,4,27,2378,134
2020,9,14,943,125
2020,7,14,2713,192
2020,1,24,1283,293
2020,5,31,2904,215
2020,3,10,2020,303
2020,5,3,2670,125
2020,2,14,1015,215
2020,7,13,2950,60
2020,6,15,1165,260
2020,8,15,3354,116
2019,12,30,2661,260
2020,1,26,1153,260
2020,7,14,1020,207
2020,1,15,1149,268
2020,10,17,2191,20
2020,3,15,2121,174
2020,6,6,2954,142
2019,12,26,1774,212
2020,4,21,2428,233
2020,7,25,2059,142
2020,5,10,685,102
2020,5,10,8,142
2020,8,22,765,116
2020,5,26,2904,31
2020,9,8,3350,63
2020,6,1,3500,20
2020,8,23,254,142
2020,8,17,882,88
2020,4,27,3359,192
2020,7,1,2255,215
2020,7,25,2019,290
2020,7,15,3372,168
2020,10,25,3296,284
2020,6,7,816,260
2020,12,13,2907,233
2020,9,23,2726,266
2020,10,7,1636,298
2020,7,10,1045,266
2020,8,25,2812,20
2020,7,28,2622,60
2020,8,31,2907,20
2020,7,7,590,303
2020,9,2,1418,142
2020,1,31,147,260
2020,8,30,2205,260
2020,6,5,2412,116
2020,3,16,1982,192
2020,12,24,1774,142
2020,1,20,1636,192
2020,11,5,520,142
2020,8,14,882,266
2020,7,2,2665,298
2020,4,22,3123,174
2020,8,27,2924,233
2020,1,25,1418,226
2020,8,9,1098,23
2020,3,28,1744,293
2020,8,25,642,264
2020,11,19,2959,215
2020,6,4,1073,116
2020,5,6,2554,192
2020,12,12,2514,142
2020,5,23,1701,215
2020,5,10,678,116
2020,8,30,365,298
2020,9,3,2822,293
2020,9,7,1073,263
2020,8,9,812,192
2020,5,6,1513,174
2020,5,6,3235,192
2020,9,12,1601,279
2020,2,16,2146,233
2020,1,15,2289,260
2019,12,26,1777,260
2020,9,7,1202,301
2020,9,20,1408,20
2020,5,16,2121,102
2020,10,16,1716,124
2020,3,28,1408,63
2020,7,17,841,134
2020,2,15,1900,63
2020,9,20,868,215
2020,5,24,1945,162
2020,2,6,486,31
2020,5,10,152,116
2020,6,19,2637,293
2020,4,20,3524,88
2020,4,19,1024,142
2020,9,10,1026,309
2020,8,25,1772,20
2020,5,5,1158,174
2020,7,15,930,192
2020,11,4,2635,67
2020,8,16,1565,142
2020,7,31,1979,296
2020,9,12,1150,279
2020,5,9,1859,102
2020,1,14,688,192
2019,12,26,2681,212
2020,8,25,3354,303
2020,8,7,207,116
2020,7,2,2954,261
2020,2,14,3497,215
2020,2,11,1549,268
2020,8,16,3116,215
2020,12,3,1111,116
2020,9,14,2269,215
2020,5,5,727,215
2020,1,25,2622,226
2020,6,30,1915,102
2019,12,28,1045,260
2020,6,7,3073,20
2020,5,30,2904,103
2020,6,13,479,192
2020,8,29,821,60
2020,4,25,2013,260
2020,10,17,3566,311
2020,5,5,1301,296
2020,12,8,1923,263
2020,8,24,2907,303
2020,7,13,1095,142
2020,9,13,591,279
2020,7,15,752,168
2020,6,11,2622,23
2020,8,6,3579,233
2020,10,27,1158,125
2020,8,18,3429,116
2020,7,28,2713,266
2020,1,6,1220,303
2020,8,22,2195,168
2020,11,10,841,134
2020,9,19,658,264
2020,11,30,724,125
2020,2,23,1592,60
2020,7,25,2455,116
2020,3,4,1878,60
2020,7,23,439,67
2020,6,11,988,20
2020,8,27,784,215
2020,7,28,753,20
2020,9,9,328,303
2020,5,17,3497,142
2020,10,14,3449,142
2020,10,25,1021,67
2020,8,15,3339,264
2020,8,16,2506,142
2020,7,30,68,20
2020,3,27,2959,207
2020,1,11,882,293
2020,6,23,3017,23
2020,8,20,3390,88
2020,12,22,2302,260
2020,7,5,1451,48
2020,12,14,2989,62
2019,12,26,111,260
2020,3,22,3101,142
2020,5,3,1900,125
2020,9,16,519,274
2020,12,1,477,116
2020,6,17,2727,125
2020,5,24,3135,192
2020,8,21,1774,162
2020,7,2,1248,215
2020,5,20,2140,191
2020,8,18,3121,168
2020,8,28,2467,200
2020,9,12,2125,142
2020,5,17,795,309
2020,8,9,409,266
2020,4,18,909,63
2020,6,25,1685,60
2020,12,8,1378,263
2020,5,6,1601,63
2020,6,11,1301,304
2020,9,7,1808,266
2020,9,2,2828,142
2020,4,11,332,233
2020,5,25,2370,142
2020,10,23,254,142
2020,6,27,2059,297
2020,4,16,2996,125
2020,3,10,97,192
2020,8,25,794,304
2020,3,21,3377,52
2020,7,2,2901,298
2020,12,16,2517,192
2020,8,31,553,142
2020,10,28,1733,233
2020,12,9,1808,298
2020,9,20,868,63
2020,9,12,664,142
2020,5,6,3291,192
2020,6,5,1640,260
2020,9,22,323,102
2020,6,14,928,142
2020,1,18,1772,233
2020,8,24,1772,304
2020,8,28,1534,200
2020,11,16,1677,192
2020,4,8,522,233
2020,4,25,1659,215
2020,11,15,88,60
2020,7,13,2713,70
2020,12,2,2852,60
2020,6,1,1969,142
2020,9,1,330,304
2020,6,10,2996,298
2020,7,3,3236,266
2020,6,27,1933,215
2020,8,15,485,192
2020,8,15,237,142
2020,7,31,1070,142
2020,11,3,1667,142
2020,5,19,59,212
2020,10,11,428,134
2020,6,6,277,116
2020,5,18,2493,20
2020,3,10,2405,192
2020,6,5,1386,20
2020,7,26,910,63
2020,6,5,2246,116
2020,4,6,1772,142
2020,7,14,1933,266
2020,11,22,588,142
2020,12,9,2412,298
2020,10,12,2299,284
2020,9,1,1142,142
2020,4,4,844,18
2020,12,12,2158,142
2020,7,14,603,142
2020,1,27,1408,174
2020,5,13,1070,192
2019,12,26,468,168
2020,8,25,1095,116
2020,3,26,1878,192
2020,7,25,2493,142
2020,10,19,477,215
2020,7,17,738,67
2020,5,21,3116,70
2020,9,13,2121,298
2020,3,9,715,192
2020,7,4,812,192
2020,7,1,479,142
2020,6,26,2959,142
2020,8,24,1592,233
2020,7,28,2018,266
2020,10,18,3530,215
2020,5,15,60,233
2020,9,20,2665,20
2020,1,30,2514,174
2020,8,17,1222,142
2020,8,3,2822,266
2020,7,25,1423,63
2020,9,1,237,266
2020,8,26,402,20
2020,12,9,1900,298
2020,4,27,2152,134
2020,7,15,531,142
2020,10,14,2253,142
2020,6,4,2670,142
2020,11,18,3513,266
2020,7,25,1653,116
2020,4,16,2954,303
2020,6,5,1266,20
2019,12,26,3437,168
2020,10,23,234,116
2020,7,14,1172,60
2020,12,6,2635,162
2020,7,28,2741,60
2020,7,30,2345,63
2020,2,13,2937,88
2020,8,17,2901,88
2020,9,20,1149,192
2020,7,13,905,20
2020,8,15,3303,60
2020,5,24,1070,192
2020,7,20,100,215
2020,10,25,2059,284
2020,9,26,651,60
2020,9,4,1573,192
2020,3,31,3323,116
2020,7,12,1952,88
2020,6,19,590,134
2020,3,11,1418,192
2020,12,10,752,266
2020,10,23,1418,99
2020,8,13,3339,48
2020,1,14,617,260
2020,7,7,868,60
2020,5,3,60,116
2020,1,8,1149,233
2020,3,27,1223,207
2020,10,16,2546,20
2020,5,26,2253,31
2020,7,17,2019,116
2020,3,6,3283,142
2020,11,1,548,192
2020,1,26,1418,168
2020,3,14,3206,67
2020,11,27,1433,192
2020,5,8,1800,215
2020,2,18,2797,226
2020,12,2,812,88
2020,8,25,121,162
2020,3,9,553,192
2020,10,23,1691,298
2020,12,3,1095,116
2020,9,6,1219,20
2020,1,4,60,260
2020,5,30,1923,284
2020,10,23,2851,142
2020,6,12,1238,67
2020,6,8,434,116
2020,1,6,3545,125
2020,11,16,3130,266
2020,12,7,531,215
2020,6,10,1859,260
2020,5,10,2216,116
2020,7,3,79,63
2020,6,11,3550,192
2020,6,5,3424,266
2020,12,6,2996,192
2020,10,25,3179,125
2020,8,15,1202,20
2020,7,23,2059,88
2020,12,4,2945,148
2020,7,19,1340,215
2020,9,21,6,125
2020,4,2,2467,116
2020,7,18,1658,296
2020,7,28,1131,215
2020,6,7,1969,192
2020,1,26,1797,67
2020,10,27,60,125
2020,2,3,588,31
2020,7,29,1345,142
2020,9,10,1492,62
2020,8,8,1865,142
2020,8,31,882,266
2020,3,3,795,62
2020,7,25,2059,215
2020,12,22,1080,116
2020,9,30,147,303
2020,6,15,1225,260
2020,2,10,909,215
2020,5,17,1558,192
2020,5,16,2822,226
2020,7,13,1513,88
2020,6,9,601,148
2020,8,7,3097,266
2020,12,8,1298,215
2020,5,24,3121,215
2020,12,19,2399,116
2020,12,20,1800,260
2020,7,30,591,168
2020,9,20,1142,279
2020,9,4,703,192
2020,11,24,1045,266
2020,5,10,1612,63
2020,8,5,1815,215
2020,9,29,3020,215
2020,3,29,554,60
2020,10,14,3261,67
2020,4,29,365,233
2020,6,15,2002,70
2020,7,26,884,20
2020,3,27,1423,63
2020,6,1,2085,215
2020,1,8,2454,67
2020,4,22,3568,174
2020,9,13,1946,260
2020,1,16,2808,192
2020,9,12,1736,142
2020,5,11,1396,88
2020,9,11,2625,301
2020,5,5,1878,102
2020,7,21,3545,142
2020,6,8,573,142
2020,1,26,771,116
2019,12,31,318,153
2020,9,1,1879,60
2020,8,17,1110,266
2020,6,14,882,142
2020,3,10,1898,192
2020,10,6,1982,142
2020,4,29,3296,309
2020,3,26,812,192
2020,8,25,2510,298
2020,10,12,698,192
2020,9,30,191,134
2020,6,5,1364,142
2020,7,22,1592,215
2020,2,13,1808,233
2020,8,6,1520,63
2020,3,6,185,142
2020,9,16,2419,67
2020,7,26,2996,301
2020,9,13,2008,62
2020,8,11,2164,168
2020,6,29,3105,142
2020,7,30,2867,20
2020,1,30,3547,303
2020,9,20,1133,142
2020,7,26,1879,226
2020,7,10,1636,233
2020,12,14,2372,116
2020,8,21,312,60
2020,7,10,3097,116
2020,4,15,2133,311
2020,7,18,426,116
2020,6,3,629,260
2020,7,22,1612,215
2020,3,6,1592,142
2020,6,7,3151,168
2020,5,6,542,215
2020,7,16,3462,298
2020,11,18,125,116
2020,3,27,2007,211
2020,1,25,1058,174
2020,6,8,3023,125
2020,9,11,1861,162
2020,7,5,234,142
2020,5,10,421,60
2020,9,3,2635,293
2020,6,10,2622,260
2020,1,26,2661,174
2020,5,15,392,215
2020,8,8,2822,60
2020,12,13,191,142
2020,2,14,2188,215
2020,12,14,2821,142
2020,2,26,1497,192
2020,5,5,310,60
2020,8,18,161,174
2020,11,19,935,296
2020,5,21,1095,192
2020,10,21,1024,192
2020,5,18,294,215
2020,7,31,328,266
2020,4,7,2629,293
2020,5,6,1458,303
2020,5,26,0,116
2020,7,28,2155,215
2020,11,8,1071,263
2020,12,9,1744,298
2020,7,8,2334,134
2020,3,28,1825,260
2020,6,19,3272,260
2020,12,13,2958,20
2020,8,15,724,20
2020,10,11,1774,134
2020,7,31,1878,233
2020,12,16,47,215
2020,10,11,1642,134
2020,9,11,3437,215
2020,4,27,3296,233
2020,3,14,2372,63
2020,11,19,379,192
2020,3,31,3155,116
2020,5,31,1520,202
2020,2,6,1865,261
2020,4,26,1017,63
2020,7,21,1205,142
2020,2,23,1601,60
2020,5,10,2299,192
2020,10,5,2334,142
2020,5,16,724,142
2020,10,24,1067,142
2020,6,4,2207,212
2020,5,6,1969,174
2020,6,23,26,142
2020,5,2,281,125
2020,8,22,1828,279
2020,9,7,1826,266
2020,6,20,3361,60
2020,9,4,1212,142
2020,8,27,2191,116
2020,6,24,1447,142
2020,10,7,1404,274
2020,8,23,975,142
2020,7,30,3567,142
2020,7,2,2510,215
2020,3,26,882,192
2020,4,2,3025,142
2020,7,2,733,134
2020,3,20,2289,260
2020,3,26,2665,192
2020,4,13,913,174
2020,1,5,2660,174
2020,8,21,2786,215
2020,8,22,2253,168
2020,9,15,3011,67
2020,8,24,2273,303
2020,4,26,1592,233
2020,9,19,2570,116
2020,7,29,2954,116
2020,1,9,225,125
2020,5,30,2807,212
2020,5,9,1580,18
2020,6,6,60,212
2020,12,16,3300,215
2020,8,22,2409,88
2020,5,5,320,215
2020,11,18,1911,215
2020,5,27,2779,142
2020,5,5,60,63
2020,1,30,1672,174
2020,4,1,2904,174
2020,8,15,75,142
2020,8,26,1219,102
2020,8,20,1020,266
2020,10,7,341,233
2020,9,3,2565,266
2020,5,4,2472,260
2020,9,19,1636,260
2020,9,2,1488,260
2019,12,26,590,60
2020,6,24,1150,279
2020,8,14,2958,142
2020,7,25,3562,142
2020,7,6,332,192
2020,1,13,1252,63
2020,8,15,3057,290
2020,6,11,1067,304
2020,10,12,1923,284
2020,9,11,1601,20
2020,8,25,2158,20
2020,3,6,411,293
2020,7,21,1592,142
2020,5,16,2182,293
2020,9,7,108,142
2020,8,14,707,274
2020,4,21,1674,67
2020,9,5,2517,130
2020,8,7,548,274
2020,5,30,1923,264
2020,7,29,548,303
2020,11,19,984,266
